RECORD,hbpermin,Pseg,PQseg,QRSseg,QRseg,QTseg,RSseg,STseg,Tseg,PTseg,ECGseg,QRtoQSdur,RStoQSdur,RRmean,PPmean,PQdis,PonQdis,PRdis,PonRdis,PSdis,PonSdis,PTdis,PonTdis,PToffdis,QRdis,QSdis,QTdis,QToffdis,RSdis,RTdis,RToffdis,STdis,SToffdis,PonToffdis,PonPQang,PQRang,QRSang,RSTang,STToffang,RRTot,NNTot,SDRR,IBIM,IBISD,SDSD,RMSSD,QRSarea,QRSperi,PQslope,QRslope,RSslope,STslope,NN50,pNN50,ECG_signal
1,74.92566898,0.076507937,0.108888889,0.088253968,0.043571429,0.193015873,0.04468254,0.104761905,0.13047619,0.301904762,0.426111111,0.00137136,0.001406417,291.7941176,291.7352941,39.1511507,55.14889299,54.82706928,70.82738518,70.9137287,86.91274002,108.6470704,124.6470773,137.9118204,15.72140062,31.76473219,69.50191974,98.76569857,16.12910653,53.82771144,83.09159669,37.73834296,67.00123111,153.9117649,1.245455336,-5.127080542,8.356354097,-4.774443547,0.870489841,35,34,17.13232138,291.7941176,17.38996473,27.15848125,292.2966362,18.45761771,63.61523934,-0.014363632,0.075269975,-0.070845897,0.012606421,2,5.882352941,ARR
2,68.50346878,0.072482639,0.096180556,0.093923611,0.046267361,0.193489583,0.04765625,0.099565972,0.089149306,0.289670139,0.366666667,0.00136838,0.001409398,318.3870968,318.3225806,34.5884368,46.48700599,51.26238856,63.16713082,68.42259525,80.32396794,104.2258425,116.1290835,119.9356625,16.73606665,33.83878695,69.6481826,85.35646718,17.21291956,52.97305923,68.68295544,35.81116163,51.51817786,131.8387104,2.151592964,-6.003336949,9.217430261,-5.355691659,1.370319766,32,31,10.612462,318.3870968,10.78788648,9.665517173,318.5639147,23.04323007,67.78777317,-0.021207427,0.0837726,-0.077458173,0.016175172,1,3.225806452,ARR
3,83.48860258,0.071153846,0.086609687,0.039529915,0.018589744,0.132478632,0.020940171,0.092948718,0.094444444,0.219088319,0.293233618,NaN,NaN,259.7631579,259.5263158,31.26622603,42.5378226,38.13126758,49.4060277,45.86732328,57.14120996,79.23823389,90.52672461,94.76523921,6.896066543,14.60644194,48.01302116,63.53183956,7.751318531,41.14277717,56.66424336,33.40804732,48.92607305,106.0528681,NaN,NaN,NaN,NaN,2.999565272,39,38,84.51298069,259.7631579,85.64743388,111.8166936,273.1654116,10.7563531,29.25382701,-0.042541938,NaN,NaN,0.027131445,16,42.10526316,ARR
4,68.50346878,0.0828125,0.108159722,0.090364583,0.045225694,0.188802083,0.045138889,0.0984375,0.08828125,0.296961806,0.373177083,0.001390204,0.001387574,312.8387097,312.8387097,38.9416662,54.77717765,55.23158513,71.07050981,71.48675197,87.3241235,106.9032359,122.741968,118.4516932,16.35855467,32.54843165,67.97090563,79.51807409,16.32175081,51.68418801,63.23273066,35.42450992,46.97044928,134.2903244,NaN,-6.253180015,10.29386121,-6.03596116,1.462617256,32,31,11.41616504,312.8387097,11.60487476,11.19325194,313.0469407,23.84508554,65.22873713,-0.017806025,0.091590943,-0.088558945,0.017021739,2,6.451612903,ARR
5,82.08,0.070760234,0.102631579,0.101023392,0.049415205,0.19371345,0.051608187,0.092690058,0.085964912,0.296345029,0.375073099,0.001358812,0.001418966,260.7837838,260.8648649,37.0051304,49.97479903,54.7864192,67.76062879,73.38103227,86.35245238,106.7567923,119.7297806,122.189359,17.82102154,36.37838615,69.75881918,85.19019083,18.63094486,51.97661422,67.40945415,33.38282237,48.8126324,135.162163,1.79138491,-4.64693075,7.254627695,-4.489193101,1.382357378,38,37,35.7711458,260.7837838,36.26456423,60.24599777,263.2256765,20.94279119,72.83035256,-0.016650194,0.064546709,-0.062245938,0.016191128,2,5.405405405,ARR
6,66.96,0.070250896,0.061917563,0.090949821,0.045967742,0.191218638,0.044982079,0.100268817,0.097132616,0.253136201,0.330286738,0.001403823,0.001373955,313.9333333,313.9333333,22.27948206,37.63915652,38.8404769,54.20710138,55.03741072,70.40214442,91.13335343,106.5000463,103.5334591,16.63406337,32.76678126,68.87019319,81.26880967,16.26155545,52.30608055,64.70631703,36.10526274,48.50267081,118.9000174,NaN,-7.10419411,10.1368609,-5.957746043,1.470472476,31,30,39.66857138,313.9333333,40.34671574,13.81171159,316.4296657,23.78712881,65.66240008,-0.03402993,0.090221997,-0.087167558,0.017037738,3,10,ARR
7,69.12,0.085243056,0.098611111,0.113368056,0.055034722,0.197569444,0.058333333,0.084201389,0.100086806,0.296180556,0.412152778,0.001348238,0.001429539,306.7419355,306.7419355,35.49081015,50.06786979,55.29402684,69.87523719,76.29237474,90.87198431,106.613076,121.1939714,133.5162307,19.85129291,40.80691774,71.13447642,98.03372171,21.03413849,51.32461566,78.22992763,30.33196422,57.22728094,148.0967807,NaN,-4.974294833,7.059589218,-4.611273727,2.132553986,32,31,8.594701075,306.7419355,8.736771875,8.60884558,306.8623207,25.67477606,81.69234913,-0.019779273,0.067143645,-0.056236082,0.024315971,2,6.451612903,ARR
8,59.94053518,0.070039683,0.056448413,0.003373016,0.001686508,0.101686508,0.001686508,0.098313492,0.097519841,0.158134921,0.229960317,NaN,NaN,365.7407407,365.7777778,20.41494121,35.60780926,21.04420323,36.23707128,21.67358733,36.86645538,57.00223649,72.22254921,67.70572283,0.632837582,1.259274463,36.6395223,47.34171564,0.632245279,36.01016878,46.71240127,35.38040148,46.08253798,82.92622685,NaN,NaN,NaN,NaN,NaN,28,27,48.74999912,365.7407407,49.67865398,76.07704947,368.9754082,1.029266175,2.524357324,-0.066071182,NaN,NaN,0.023898773,5,18.51851852,ARR
9,94.19226957,0.055492424,0.093055556,0.111237374,0.055366162,0.179861111,0.055871212,0.068623737,0.090151515,0.272916667,0.357007576,0.001382418,0.00139536,227.7209302,228.2325581,33.56229743,41.97970491,53.51623267,61.93488097,73.63133945,82.04924823,98.32566011,106.7443337,120.3721284,19.98960726,40.07028992,64.77048045,86.81495758,20.16473878,44.81755752,66.86499872,24.71156327,46.74823743,128.7907106,NaN,-4.300345798,7.322165843,-5.838697114,2.462826779,44,43,8.447720434,227.7209302,8.547696937,7.501776056,227.8775681,25.52451509,80.22463597,-0.015832984,0.059302359,-0.068689123,0.033345675,0,0,ARR
10,68.7761194,0.046006944,0.086111111,0.112760417,0.065277778,0.166059028,0.047482639,0.053298611,0.089322917,0.252170139,0.340625,0.001605982,0.001171796,307.6129032,307.6451613,31.0993895,37.84074056,54.55386239,61.29574143,71.65043092,78.39160747,90.80647919,97.5484576,116.0968316,23.48116764,40.55113761,59.71150108,85.00048576,17.17486587,36.26490819,61.55473709,19.18411968,44.45797809,122.8387444,NaN,-3.608548503,8.317865292,-8.239178978,3.198018525,32,31,9.352168696,307.6129032,9.506760469,12.98327985,307.7550345,29.05720274,81.20717113,-0.012932803,0.050094148,-0.095417119,0.048715093,4,12.90322581,ARR
11,85.97014925,0.074097222,0.103125,0.0925,0.047013889,0.197013889,0.045486111,0.104513889,0.125763889,0.300138889,0.400347222,0.001411975,0.001365803,251.6923077,251.7435897,37.0822134,51.59151612,54.03003976,68.54420064,70.38934817,84.89968914,108.0256691,122.538523,129.7181167,16.99954896,33.30828862,70.95084429,92.64196349,16.42814451,54.00541829,75.69762655,37.64830356,59.33645067,144.2307697,1.748962314,-5.390879688,9.679205696,-6.378653763,1.477636643,40,39,5.849189495,251.6923077,5.925652734,7.344132902,251.7602645,23.46277468,66.73598209,-0.016855253,0.077390454,-0.091960361,0.019632035,0,0,ARR
12,58.02985075,0.074074074,0.101028807,0.088786008,0.044444444,0.19382716,0.044341564,0.105041152,0.124897119,0.294855967,0.387860082,0.001390649,0.001387129,371.5,371.5769231,36.4281401,49.69470107,52.42884176,65.6984356,68.38823569,81.65592148,106.1923125,119.4616054,126.423147,16.05969722,31.96171803,69.77191734,90.00126614,16.02996165,53.7747653,74.00555175,37.81433676,58.04131868,139.692308,1.476422937,-5.886541614,10.21848704,-6.358966177,1.483520787,27,26,44.36843126,371.5,45.24709935,60.8834953,374.140091,22.83479729,64.0513769,-0.016665801,0.086291091,-0.092536404,0.018716159,6,23.07692308,ARR
13,60.17910448,0.062103175,0.092857143,0.065277778,0.035019841,0.150793651,0.030257937,0.085515873,0.088988095,0.243650794,0.317956349,NaN,NaN,354.1481481,352.4074074,33.17394028,44.70878444,45.3211872,56.85818689,55.95231569,67.48723006,86.85324129,98.4078693,101.9647698,12.1570658,22.77862152,53.71099281,68.81846213,10.64960221,41.56163596,56.67206502,30.94236277,46.04237575,113.5185233,4.322942183,NaN,NaN,NaN,NaN,28,27,102.3341309,354.1481481,104.2835276,129.5711634,368.6369287,12.14315438,45.58528953,-0.038019062,NaN,NaN,0.032175975,9,33.33333333,ARR
14,62.32835821,0.078448276,0.115613027,0.088601533,0.045402299,0.194731801,0.043199234,0.106130268,0.122126437,0.310344828,0.404310345,0.001423457,0.001354321,345.6785714,345.6785714,41.6113983,57.001903,57.96924949,73.36251014,73.50334513,88.8946984,111.7142928,127.1071761,130.2500708,16.4130435,31.89303927,70.10935831,88.64404759,15.60417692,53.75588496,72.29124138,38.22005533,56.75282749,145.6428573,1.302599652,-5.543617488,10.08814089,-6.356970262,1.299997138,29,28,22.33839355,345.6785714,22.74830652,27.38392387,346.3995938,22.40989398,63.9102597,-0.014289679,0.082655419,-0.093883289,0.017346231,9,32.14285714,ARR
15,49.43283582,0.057125604,0.081521739,0.053502415,0.027415459,0.128985507,0.026086957,0.075483092,0.106280193,0.210507246,0.29673913,NaN,NaN,430.6818182,432.2272727,29.89574387,39.64397928,40.21442003,49.96529281,50.03488591,59.78260906,76.77425203,86.54559899,98.59281148,10.34847176,20.1391748,46.91610227,68.73082761,9.882802141,36.60028705,58.41632854,26.79595186,48.59884957,108.3636471,5.352938155,NaN,NaN,NaN,3.012488137,23,22,19.91433098,430.6818182,20.38296759,29.88170175,431.1419825,15.23298317,40.3704487,-0.043866671,NaN,NaN,0.043363574,8,36.36363636,ARR
16,64.47761194,0.064537037,0.096944444,0.1,0.050648148,0.2,0.049351852,0.1,0.09287037,0.296944444,0.382407407,0.001403199,0.001374579,325.2413793,325.3793103,35.11263489,45.93578336,53.17625894,64.00542445,70.83153536,81.65722648,106.9310917,117.7586726,126.5519516,18.12422222,35.72416458,71.83095999,91.44988166,17.70890512,53.76352333,73.38452324,36.10978443,55.72648785,137.3793345,NaN,-5.810067961,8.957406947,-5.509381323,1.482666303,30,29,89.46687122,325.2413793,91.05047861,163.3671018,337.3222137,25.18722148,71.55729191,-0.022951542,0.078621492,-0.078036603,0.0182815,8,27.5862069,ARR
17,60.17910448,0.090178571,0.095238095,0.102678571,0.051190476,0.199702381,0.051488095,0.09702381,0.093055556,0.294940476,0.382837302,0.001384936,0.001392842,356.8518519,356.8148148,34.26583669,49.48427528,52.70825,67.93108657,71.26221884,86.4829507,106.1481532,121.370424,122.5556538,18.4948319,37.00000916,71.89173721,88.29780582,18.60403638,53.44934812,69.85698624,34.89436807,51.29867884,137.7777782,1.665634525,-5.331218781,8.335197156,-5.134185607,1.441982393,28,27,6.942641741,356.8518519,7.07489442,7.802006266,356.9193809,24.91733425,74.09887743,-0.019521846,0.073664842,-0.072076353,0.017661708,0,0,ARR
18,88.11940299,0.083062331,0.101287263,0.098441734,0.049119241,0.198848238,0.049322493,0.100406504,0.094579946,0.300135501,0.390176152,0.001386039,0.001391739,243.1,243.075,36.48395565,49.75375787,54.15504433,67.43149441,71.92847838,85.20153013,108.0500363,121.3250487,127.175172,17.74263558,35.45014546,71.57862004,90.70197842,17.83375291,53.90634872,73.03115493,36.13030831,55.2522487,140.4500006,2.118621607,-6.272789026,9.655209103,-5.633118223,1.344306307,41,40,7.761443165,243.1,7.860319038,8.143437963,243.2238681,26.52117563,71.02653396,-0.022153146,0.087555255,-0.081363261,0.017134276,1,2.5,ARR
19,49.43283582,0.089613527,0.101449275,0.096618357,0.048188406,0.198188406,0.048429952,0.101570048,0.11884058,0.299637681,0.415217391,0.001385438,0.00139234,434.0909091,434.1363636,36.55007879,56.45633529,53.91468718,73.82376834,71.32191994,91.22923625,107.9090929,127.8182314,129.6364356,17.41661923,34.77304793,71.36584864,93.09197171,17.47417993,54.00586214,75.73278471,36.59782246,58.3212107,149.5454546,1.288305559,-5.37297787,9.403325255,-6.0516593,1.422313699,23,22,10.56541997,434.0909091,10.81405211,17.39314641,434.2194669,24.86514299,69.66384709,-0.015879375,0.078057843,-0.086437399,0.019402996,3,13.63636364,ARR
20,88.11940299,0.058130081,0.091666667,0.062466125,0.031775068,0.160772358,0.030691057,0.098306233,0.097628726,0.252439024,0.321883469,NaN,NaN,243.375,242.15,32.60202019,44.80552649,43.90244793,56.10660658,54.80185079,67.00554269,90.15109802,102.375072,102.9516428,11.31732066,22.20015428,57.58107337,70.37837344,10.92222604,46.2822984,59.07997513,35.38286433,48.17919112,115.1750058,NaN,NaN,NaN,NaN,1.758504184,41,40,64.99603353,243.375,65.82404186,115.1872215,251.9044958,11.2873476,44.43970098,-0.037981668,NaN,NaN,0.019546808,15,37.5,ARR
21,87.77006938,0.069376694,0.099661247,0.095121951,0.047764228,0.194173442,0.047357724,0.099051491,0.102371274,0.293834688,0.383333333,0.001394931,0.001382847,246.2,246.2,35.85563809,46.42865415,53.05584903,63.63085965,70.10271553,80.67691023,105.7500116,116.325027,127.3750549,17.25805122,34.25004166,69.90269315,91.52646705,17.10747048,52.70608243,74.3305284,35.6550924,57.27730327,137.950015,NaN,-5.717043572,9.377996133,-5.647551026,1.294428556,41,40,45.13269325,246.2,45.7076552,57.54159231,250.3026168,24.03217192,68.61556335,-0.017880671,0.082088994,-0.081960723,0.016795796,16,40,ARR
22,51.37760159,0.086342593,0.094444444,0.097453704,0.048842593,0.194560185,0.048611111,0.097106481,0.085532407,0.28900463,0.373958333,0.001392196,0.001385582,405.6086957,405.4782609,33.91995134,50.74191448,51.52730724,68.35388597,69.00336936,85.82771681,103.9130477,120.7391952,117.6522857,17.6677034,35.08695826,70.00307401,83.74076205,17.53744778,52.39719576,66.13682301,34.91915698,48.65495283,134.4782612,1.681273525,-5.836758619,9.38651086,-5.776315751,1.627831178,24,23,12.80875764,405.6086957,13.09663083,14.5928914,405.8108898,25.23691051,70.29210944,-0.020172183,0.081885456,-0.082311087,0.018693623,2,8.695652174,ARR
23,100.6144698,0.066903073,0.100059102,0.096099291,0.048522459,0.190248227,0.047576832,0.094148936,0.105319149,0.290307329,0.385579196,NaN,NaN,214.173913,214.1086957,36.0498717,46.50318694,53.48387965,63.9396342,70.5911593,81.04558835,104.5218551,114.9783113,128.4349242,17.47718057,34.54353596,68.48071777,92.39254642,17.1548176,51.04844752,74.96107252,33.94048318,57.85012697,138.8913287,NaN,NaN,NaN,NaN,1.381034142,47,46,77.39264777,214.173913,78.24784111,98.25611783,227.7280987,22.53869147,69.17553413,-0.019005639,NaN,NaN,0.018291722,20,43.47826087,ARR
24,87.77006938,0.07798103,0.097154472,0.092208672,0.045934959,0.195257453,0.046273713,0.10304878,0.086653117,0.292411924,0.37899729,0.001383756,0.001394022,240.55,240.525,34.95753747,47.27826586,51.50490854,63.83108051,68.15296947,80.47634953,105.2500177,117.5750519,124.0751324,16.61228896,33.20012334,70.30315219,89.12666531,16.70444653,53.75552961,72.58048466,37.10447427,55.92685437,136.4000005,1.980400688,-6.149092076,9.58331469,-5.511942449,1.25920997,41,40,4.206839669,240.55,4.260432144,5.365533956,240.5867827,23.08284642,66.51685883,-0.020757717,0.086786001,-0.080870479,0.015509588,0,0,ARR
25,92.05153617,0.070542636,0.109237726,0.086434109,0.044315245,0.154715762,0.042118863,0.068281654,0.06369509,0.263953488,0.323514212,0.001424314,0.001353463,231.3571429,231.3809524,39.31371413,51.64499496,55.26743974,67.60105183,70.43224266,82.76418824,95.09526017,107.4285833,104.3095937,16.0099319,31.11940496,55.78813136,65.00168752,15.24081955,39.84259962,49.05670663,24.67630921,33.88727497,116.6428594,NaN,-5.681774123,10.48550659,-7.287157637,2.337015844,43,42,7.428456959,231.3571429,7.518502149,7.374328834,231.4763693,22.20560736,62.37015641,-0.014573111,0.084799099,-0.098737377,0.028781361,0,0,ARR
26,89.91080278,0.062433862,0.090013228,0.097685185,0.048544974,0.161640212,0.049140212,0.063955026,0.074272487,0.251653439,0.331349206,0.001380385,0.001397392,238.5121951,238.3658537,32.34779431,43.61193098,49.80937808,61.07941749,67.49313054,78.75872734,90.43902739,101.707516,107.8538897,17.51247331,35.14696231,58.10104348,75.51334865,17.74792871,40.63973079,58.05563067,22.96683171,40.37071038,119.1219527,2.177408796,-5.421566371,9.188955835,-7.020487296,2.84223335,42,41,13.74173268,238.5121951,13.91244398,13.67184607,238.9077279,24.79228339,70.40736434,-0.019802819,0.074965329,-0.085764643,0.036994269,2,4.87804878,ARR
27,109.6119403,0.067102397,0.09291939,0.090795207,0.04667756,0.15332244,0.044117647,0.062527233,0.062690632,0.24624183,0.311220044,0.001427985,0.001349793,195.74,195.72,33.44949004,45.04324776,50.24415315,61.84655354,66.12496335,77.72198264,88.68029722,100.2800048,100.2803799,16.86173848,32.68001109,55.24294723,66.84210771,15.94654645,38.45010931,50.04891378,22.56790486,34.16471777,111.8800018,2.62443591,-6.267549828,10.13332098,-6.782481518,1.975408323,51,50,7.883679344,195.74,7.96371875,11.89860677,195.8986983,23.64815021,65.48829602,-0.023845527,0.085759471,-0.091567283,0.027072479,1,2,ARR
28,111.761194,0.079273504,0.12366453,0.08883547,0.045245726,0.192094017,0.043589744,0.103258547,0.136752137,0.315758547,0.425,0.001414505,0.001363273,192.5294118,192.5294118,44.54992975,59.76512017,60.84406409,76.05991499,76.53037049,91.74563715,113.6862848,128.9019769,137.6666986,16.30496562,31.9806032,69.13768617,93.1178294,15.70204858,52.84438727,76.82472349,37.15859803,61.13800885,152.8823584,NaN,-2.360718785,4.502611017,-3.02011538,0.711402519,52,51,24.63486525,192.5294118,24.87999433,38.79381394,194.0990752,10.26108398,63.98761739,-0.006032089,0.035187645,-0.04344727,0.009296388,2,3.921568627,ARR
29,70.92537313,0.087037037,0.103282828,0.113468013,0.05513468,0.198989899,0.058333333,0.085521886,0.088299663,0.302272727,0.401683502,0.001349466,0.001428311,302.46875,302.5,37.22398309,53.84603076,57.0677841,73.69309666,78.06713405,94.69025244,108.7815803,125.4068829,127.8438451,19.89294673,40.84450115,71.56799337,90.6262066,21.06287478,51.72129634,70.78738434,30.73925812,49.78617131,144.4687548,NaN,-4.985892862,8.439854018,-6.49449913,3.341690774,33,32,11.03682579,302.46875,11.21342621,11.44411386,302.6700452,30.74873123,81.80032267,-0.016734484,0.070404319,-0.077171667,0.036351773,1,3.125,ARR
30,70.92537313,0.070791246,0.10547138,0.092845118,0.046717172,0.196632997,0.046127946,0.103787879,0.117087542,0.302104377,0.416582492,0.001397817,0.001379961,299.4375,299.46875,38.00530763,51.94039059,54.81861979,68.75605324,71.40918834,85.34558593,108.7812537,122.7187914,136.4687969,16.87504717,33.40627887,70.78411245,98.470129,16.65843551,53.97490073,81.66155078,37.38068725,65.06472173,150.4062543,NaN,-5.891358639,9.983572638,-6.047958987,1.245088625,33,32,62.52196489,299.4375,63.52237985,81.30789621,305.8951005,24.35229125,66.93976155,-0.016718477,0.086321158,-0.088369778,0.017419084,14,43.75,ARR
31,75.2238806,0.076984127,0.102142857,0.094603175,0.047936508,0.195396825,0.046666667,0.100793651,0.095952381,0.297539683,0.37952381,0.001405914,0.001371863,281.3235294,281.4117647,36.82808977,50.09078741,54.09313343,67.35787359,70.88488595,84.14869258,107.1764725,120.4412184,123.382406,17.31468876,34.05888764,70.35538051,86.56010382,16.84638746,53.09314189,69.2992445,36.29918818,52.50235835,136.6470667,NaN,-5.234501318,8.79436125,-5.403818304,1.377635461,35,34,74.5341298,281.3235294,75.65500668,117.1458871,291.0296629,22.05821352,68.21996386,-0.015689845,0.075827059,-0.07798883,0.016496243,12,35.29411765,ARR
32,73.07462687,0.065114379,0.073039216,0.095669935,0.050163399,0.196977124,0.045506536,0.10130719,0.127614379,0.27001634,0.386111111,0.001456332,0.001321446,288.6060606,288.5454545,26.25659851,37.88256943,44.3048744,55.94394076,60.67075235,72.30404951,97.21259073,108.8484903,127.7580512,18.10346148,34.42460165,70.97191435,101.5164384,16.40020556,52.91354798,83.45778661,36.54786517,67.09191922,139.3939413,3.388318248,-5.655662853,7.533041822,-4.343091077,0.741151961,34,33,21.28584591,288.6060606,21.6158787,32.7894413,289.389954,19.38068302,68.92826869,-0.031898563,0.066947006,-0.06475892,0.011151349,7,21.21212121,ARR
33,77.37313433,0.079552469,0.101388889,0.097067901,0.049614198,0.199614198,0.047453704,0.102546296,0.111419753,0.301003086,0.399768519,0.001419818,0.00135796,275.6,275.7142857,36.54902517,52.11669037,54.40553003,69.97782413,71.46131048,87.0306482,108.4000076,123.9714977,128.3429815,17.91563052,34.91443386,71.85991497,91.8013212,17.12718083,54.00615483,73.94901442,36.95011147,56.8888097,143.914286,1.68159537,-5.683209143,9.81299097,-6.317383413,1.535584603,36,35,43.71217549,275.6,44.35034319,62.73233632,279.0450041,26.14763342,69.9572452,-0.018376338,0.080993176,-0.090700558,0.019809194,1,2.857142857,ARR
34,19.34328358,0.092592593,0.083950617,0.109259259,0.057098765,0.203703704,0.052160494,0.094444444,0.09691358,0.287654321,0.387962963,0.001448613,0.001329164,1122.875,1120.5,30.00597016,48.37730607,50.25405844,68.62945845,69.00332952,87.3767208,102.8750026,121.2500917,120.5000877,20.28888186,39.0001207,72.87770619,90.50121238,18.79799288,52.62901832,70.25460233,33.88262013,51.50293585,138.8750003,1.507937672,-4.401039797,7.081515114,-4.886443235,1.567810245,9,8,961.8107191,1122.875,1028.218909,849.4744354,1478.48846,24.94815129,78.08699544,-0.019011491,0.057885441,-0.065922626,0.019496146,4,50,ARR
35,62.32835821,0.064750958,0.108237548,0.090421456,0.044923372,0.14664751,0.045498084,0.056226054,0.104885057,0.254885057,0.372318008,0.00138009,0.001397687,345.4642857,345.4642857,38.96827462,51.78722208,55.14810686,67.97055648,71.54203379,84.36083276,91.78573117,104.607356,121.2501221,16.23211074,32.57394539,52.82487619,82.28661304,16.48192925,36.64985448,66.1137523,20.27540624,49.72048799,134.071429,1.545781858,-5.467500273,10.60037993,-8.834474583,3.310033745,29,28,57.74047982,345.4642857,58.80002655,87.19454621,350.2563857,24.60828869,65.28798538,-0.014270402,0.081336573,-0.104233488,0.050380416,11,39.28571429,ARR
36,53.73134328,0.053777778,0.134333333,0.094555556,0.047,0.175111111,0.047555556,0.080555556,0.085555556,0.309444444,0.386111111,0.001380471,0.001397306,391.6666667,391.1666667,48.50159813,58.16750998,65.37830365,75.04526546,82.50290549,92.16869331,111.6250878,121.2918679,129.2500507,16.90758193,34.00134333,63.12720227,80.75049111,17.17778091,46.25289501,63.87956192,29.13666387,46.75358105,138.9166733,NaN,-3.947480737,7.900262814,-6.017179677,2.439876531,25,24,209.2089599,391.6666667,213.7085921,293.1142928,444.0396003,19.77072807,68.08670617,-0.008023258,0.060961225,-0.077185144,0.028015376,10,41.66666667,ARR
37,90.72,0.078240741,0.088690476,0.093584656,0.047089947,0.196494709,0.046494709,0.102910053,0.101719577,0.285185185,0.37526455,0.001397849,0.001379929,235.8536585,235.8292683,31.91126789,44.90615015,48.85943837,61.86056872,65.61339995,78.61146467,102.6585664,115.6585761,122.0733055,17.01761336,33.70736932,70.75929396,90.17252841,16.81812057,53.81126673,73.22545133,37.0538653,56.46572203,135.073171,2.112605083,-6.408607495,9.981861938,-5.869597816,1.254483904,42,41,5.106480701,235.8536585,5.169917676,6.334627061,235.9089324,24.80227758,67.54310325,-0.023525893,0.088560972,-0.08609927,0.016558738,0,0,ARR
38,45.13432836,0.059656085,0.071164021,0.036375661,0.018386243,0.145634921,0.017989418,0.109259259,0.098677249,0.216798942,0.299338624,NaN,NaN,494.25,493.05,25.28410433,35.85830725,31.37934478,41.95837289,37.13167013,47.70794875,77.25154613,87.85029199,96.65133213,6.11215557,11.85011032,52.00752574,71.40390401,5.765318957,45.90592753,65.30482922,40.16128179,59.55471709,107.2500414,5.392199426,NaN,NaN,NaN,2.382982792,21,20,208.4593186,494.25,213.8747481,311.076631,536.4124812,6.823412437,23.72758485,-0.052745177,NaN,NaN,0.024855731,6,30,ARR
39,143.4291378,0.081177446,0.096517413,0.118739635,0.061276949,0.209411277,0.057462687,0.090671642,0.070936982,0.30592869,0.392993367,NaN,NaN,149.1818182,148.8333333,34.82483337,50.41320805,56.83602804,72.44395175,77.52137767,93.12233796,110.153464,125.7587713,125.9258344,22.07312793,42.71316747,75.35596233,91.1230321,20.71844477,53.32003766,69.096247,32.6512949,48.41087757,141.5303121,4.036657069,NaN,NaN,NaN,NaN,67,66,94.51533611,149.1818182,95.23960215,188.4306499,176.6022753,27.9412971,85.50474016,-0.032289951,NaN,NaN,0.027517266,32,48.48484848,ARR
40,68.50346878,0.043836806,0.106770833,0.088107639,0.044618056,0.187413194,0.043489583,0.099305556,0.095399306,0.294184028,0.357638889,0.001406915,0.001370863,312.8387097,312.8387097,38.32702076,50.39011333,54.39325608,66.45742034,70.06745349,82.13122614,105.8064551,117.870991,116.387128,16.12526947,31.7419982,67.48651375,78.06609773,15.74498499,51.42558886,62.0065377,35.74795954,46.32590726,128.4516224,NaN,-5.840957203,10.26893969,-6.348001864,1.581157393,32,31,11.27399741,312.8387097,11.4603571,11.09153832,313.0417884,22.62653586,63.61225267,-0.015234028,0.086931271,-0.092783931,0.018279919,2,6.451612903,ARR
41,79.20713578,0.061111111,0.05015015,0.005105105,0.002477477,0.10518018,0.002627628,0.100075075,0.093843844,0.15533033,0.217342342,NaN,NaN,261.2222222,261.2222222,18.07386474,31.3110026,18.98923868,32.22637655,19.96117121,33.19830908,55.97300163,69.22222474,64.19518415,0.922331175,1.889082466,37.92030653,46.14193866,0.975112448,37.00360108,45.22542314,36.03122487,44.2528926,77.44445888,NaN,NaN,NaN,NaN,NaN,37,36,33.55353195,261.2222222,34.02949234,56.39044643,263.3683521,1.509671953,3.786526089,-0.044701172,NaN,NaN,0.013775379,2,5.555555556,ARR
42,86.4,0.052569444,0.080902778,0.039791667,0.020902778,0.147291667,0.018888889,0.1075,0.075416667,0.228194444,0.280694444,NaN,NaN,239.974359,238.8717949,28.76663917,37.41623694,36.04043717,44.69858299,42.58311762,51.23623716,81.5392909,90.20552446,91.87328577,7.305715955,13.82090469,52.80113964,63.13077731,6.567429876,45.51767842,55.85077892,38.98497071,49.31161966,100.5384917,5.80988724,NaN,NaN,NaN,3.053732632,40,39,126.7734679,239.974359,128.4307078,95.86550265,271.4022939,9.366893339,27.69405052,-0.043561385,NaN,NaN,0.023577261,11,28.20512821,ARR
43,60.17910448,0.064781746,0.053174603,0.003670635,0.001884921,0.103670635,0.001785714,0.1,0.080059524,0.156845238,0.214980159,NaN,NaN,365.8518519,365.8518519,19.20328014,33.0471258,19.90680842,33.75065408,20.57344257,34.41728822,56.52039608,70.40765691,63.78132906,0.704587455,1.370382206,37.38417188,44.63690236,0.66732271,36.68044181,43.93324111,36.01380676,43.26652023,77.66667498,NaN,NaN,NaN,NaN,3.310841134,28,27,43.43722904,365.8518519,44.26467919,65.81793069,368.4214575,0.598545949,2.742292371,-0.075203877,NaN,NaN,0.027441944,4,14.81481481,ARR
44,94.56716418,0.059911616,0.052146465,0.00239899,0.001136364,0.102209596,0.001262626,0.099810606,0.092487374,0.154356061,0.214646465,NaN,NaN,227.7209302,227.7209302,18.86230395,31.20058242,19.28090562,31.61922745,19.74605841,32.08433195,55.60727697,68.00024805,64.91118713,0.419079662,0.883754468,36.83018694,46.12487484,0.465937227,36.41152226,45.70634043,35.94676306,45.24122482,77.30238521,NaN,NaN,NaN,NaN,2.975611875,44,43,9.304476496,227.7209302,9.414592476,9.01799662,227.9109373,0.448297823,1.768771356,-0.087724592,NaN,NaN,0.030184529,1,2.325581395,ARR
45,70.64420218,0.068518519,0.054545455,0,0,0.1,0,0.1,0.076515152,0.154545455,0.211868687,NaN,NaN,307.625,307.65625,19.72291577,34.60581677,19.72291577,34.60581677,19.72291577,34.60581677,55.65832231,70.5941439,61.41072072,0,0,36.01812356,41.75927511,0,36.01812356,41.75927511,36.01812356,41.75927511,76.34375914,7.415747575,NaN,NaN,NaN,4.446098853,33,32,9.389988019,307.625,9.540237368,12.83992538,307.7682773,0,0,-0.082387788,NaN,NaN,0.031712591,4,12.5,ARR
46,85.62933598,0.045833333,0.049930556,0.081666667,0.04,0.185069444,0.041666667,0.103402778,0.104722222,0.235,0.323958333,NaN,NaN,252.0512821,251.7435897,18.06897352,27.44744893,32.44053708,41.82518332,47.41339509,56.79692441,84.61547768,94.00005881,107.0258061,14.43424769,29.36004647,66.56723017,88.97621644,15.00480609,52.18303991,74.592933,37.20735252,59.61633934,116.4103369,NaN,NaN,NaN,NaN,0.837872113,40,39,7.999835633,252.0512821,8.104413086,10.79784656,252.1782032,16.45775287,58.79910025,-0.046155673,NaN,NaN,0.010641151,1,2.564102564,ARR
47,53.51833499,0.088,0.104222222,0.096555556,0.048777778,0.198555556,0.047777778,0.102,0.105222222,0.302777778,0.398111111,0.001403175,0.001374603,399.4166667,399.4166667,37.50486251,53.37765859,55.08915741,70.96394285,72.2948687,88.16871058,109.0000021,124.8750545,127.2083879,17.6393759,34.79175265,71.50272642,89.70964996,17.27197858,53.92231216,72.13085179,36.71503007,54.9195508,143.0833442,NaN,-5.483345883,9.476706757,-6.006889257,1.530995191,25,24,14.43062908,399.4166667,14.74100069,17.48647871,399.6772656,25.07538005,69.70310713,-0.016072968,0.079801601,-0.085981714,0.019073471,4,16.66666667,ARR
48,62.08126858,0.060823755,0.05,0,0,0.1,0,0.1,0.082088123,0.15,0.194348659,NaN,NaN,345.7142857,345.7142857,18.06038458,30.40672555,18.06038458,30.40672555,18.06038458,30.40672555,54.00288584,66.392858,56.14576694,0,0,36.01169089,38.15359301,0,36.01169089,38.15359301,36.01169089,38.15359301,68.53571596,7.24889927,NaN,NaN,NaN,NaN,29,28,22.30127662,345.7142857,22.71050849,27.35279845,346.4328424,0,0,-0.08176434,NaN,NaN,0.025428685,9,32.14285714,ARR
49,49.43283582,0.067391304,0.097584541,0.089492754,0.045169082,0.19178744,0.044323671,0.102294686,0.102536232,0.289371981,0.357125604,0.001401813,0.001375965,429.9545455,429.8636364,35.14334866,46.50288335,51.36881049,62.73389934,67.32270142,78.6840895,104.1818355,115.5455217,117.2728966,16.29011021,32.18194297,69.04844102,82.13789716,16.02576685,52.8240559,65.91562858,36.87070967,49.9579397,128.6363648,2.06148606,-6.17023055,10.42723805,-6.51811839,1.736947131,23,22,13.87763823,429.9545455,14.20421558,12.707239,430.1784513,23.62033717,64.49782003,-0.019908693,0.088012632,-0.094486767,0.01956032,3,13.63636364,ARR
50,73.07462687,0.049918301,0.044526144,0.079493464,0.038888889,0.156862745,0.040604575,0.077369281,0.102941176,0.201388889,0.297222222,NaN,NaN,297.1515152,297.1212121,16.06853976,26.89138075,30.00855213,40.85857324,44.61603115,55.4585581,72.66705949,83.51521307,96.15205163,14.04985715,28.57719911,56.64327192,80.12513608,14.6569366,42.67430927,66.15728663,28.06753841,51.5480818,107.0000262,NaN,NaN,NaN,NaN,1.583328056,34,33,10.92708953,297.1515152,11.09651187,14.43952908,297.352357,21.37061236,57.28399286,-0.068808174,NaN,NaN,0.023132192,3,9.090909091,ARR
51,64.47761194,0.058518519,0.050925926,0,0,0.1,0,0.1,0.085,0.150925926,0.198055556,NaN,NaN,325,324.9655172,18.34489578,29.73147347,18.34489578,29.73147347,18.34489578,29.73147347,54.31180385,65.72420796,59.72609116,0,0,36.00760915,41.41886749,0,36.00760915,41.41886749,36.00760915,41.41886749,71.13793375,5.513248185,NaN,NaN,NaN,1.691697563,30,29,94.00146734,325,95.6653393,171.6550401,338.3212613,0,0,-0.058876129,NaN,NaN,0.019367127,8,27.5862069,ARR
52,60.17910448,0.068849206,0.05,0,0,0.100496032,0,0.100496032,0.082242063,0.150496032,0.203075397,NaN,NaN,356.8148148,356.8148148,18.05680102,33.56764775,18.05680102,33.56764775,18.05680102,33.56764775,54.18775718,69.74074102,57.63214822,0,0,36.19649593,39.63972527,0,36.19649593,39.63972527,36.19649593,39.63972527,73.18518568,6.486552969,NaN,NaN,NaN,1.598810864,28,27,6.976346476,356.8148148,7.109241207,7.856045801,356.8830081,0,0,-0.079186539,NaN,NaN,0.024915523,0,0,ARR
53,88.11940299,0.065650407,0.084823848,0.096273713,0.047831978,0.175542005,0.048441734,0.079268293,0.098577236,0.260365854,0.362262873,0.001382488,0.00139529,243.05,243.075,30.63713691,41.82902232,47.85358156,59.05634136,65.35451799,76.55158752,94.07534634,105.2750192,120.0503724,17.28567018,34.72542969,63.452974,89.42680894,17.55239833,46.23250203,72.20565037,28.73047079,54.70249814,131.2500032,3.032607738,-6.370929192,9.197778914,-5.534931097,1.335680055,41,40,8.176032045,243.05,8.280189518,9.098699071,243.1874791,24.2728587,69.5634982,-0.02790627,0.083494532,-0.077398899,0.019370308,1,2.5,ARR
54,49.43283582,0.039371981,0.045169082,0.027415459,0.013164251,0.124758454,0.014251208,0.097342995,0.097101449,0.169927536,0.207850242,NaN,NaN,434.6818182,434.3181818,16.44402326,21.46838178,20.79923726,25.83095829,25.52731187,30.55677973,61.13675792,66.18190084,69.95542378,4.383138779,9.09110511,44.73614551,53.55071955,4.740637559,40.37268662,49.18787104,35.6456261,44.45984285,75.00001293,7.252523681,NaN,NaN,NaN,2.325092376,23,22,11.431163,434.6818182,11.70016835,19.42261814,434.8320993,5.504902285,18.21488145,-0.064652029,NaN,NaN,0.022718996,3,13.63636364,ARR
55,73.07462687,0.058660131,0.084150327,0.056045752,0.028431373,0.161519608,0.027614379,0.105473856,0.105310458,0.245669935,0.325735294,NaN,NaN,288.0909091,287.2424242,30.08180903,41.15864057,40.11108404,51.18886166,49.74748531,60.82474533,88.00085093,99.09102929,106.0915978,10.04011383,19.66673622,57.94373493,76.03328696,9.646690736,47.91348069,66.00377257,38.27830436,56.36699165,117.1818522,NaN,NaN,NaN,NaN,NaN,34,33,158.3093182,288.0909091,160.7638726,250.5390984,328.7220895,7.995179681,39.35354079,-0.036899273,NaN,NaN,0.015980633,12,36.36363636,ARR
56,87.77006938,0.052777778,0.051219512,0,0,0.115379404,0,0.115379404,0.120392954,0.166598916,0.239905149,NaN,NaN,246.175,246.175,18.50108763,28.27010643,18.50108763,28.27010643,18.50108763,28.27010643,60.00196788,69.80039448,76.90179449,0,0,41.55964244,58.45693225,0,41.55964244,58.45693225,41.55964244,58.45693225,86.70032762,NaN,NaN,NaN,NaN,NaN,41,40,45.19838908,246.175,45.77418795,57.66949977,250.2898819,0,0,-0.074514028,NaN,NaN,0.021620228,16,40,ARR
57,51.37760159,0.058912037,0.05,0,0,0.1,0,0.1,0.098842593,0.15,0.209375,NaN,NaN,405.5217391,405.5217391,18.06063763,29.97100864,18.06063763,29.97100864,18.06063763,29.97100864,54.00287432,65.95652356,63.7416636,0,0,36.01179656,45.74941415,0,36.01179656,45.74941415,36.01179656,45.74941415,75.69565493,7.310170233,NaN,NaN,NaN,NaN,24,23,12.60734625,405.5217391,12.89069278,14.35737781,405.717668,0,0,-0.082066755,NaN,NaN,0.025572397,3,13.04347826,ARR
58,98.47373637,0.050845411,0.061171498,0.020289855,0.010205314,0.125543478,0.010084541,0.105253623,0.10326087,0.186714976,0.252657005,NaN,NaN,218.9777778,218.9777778,22.14999309,31.17179575,25.90410522,34.92737996,29.61566587,38.63825018,67.51263945,76.55615242,82.24633712,3.762232344,7.466834533,45.40846792,60.13811718,3.719759849,41.65270296,56.38316373,37.94400042,52.67229339,91.28927881,NaN,NaN,NaN,NaN,NaN,46,45,95.94500482,218.9777778,97.02916358,126.0767754,239.0746978,4.423614311,14.94882673,-0.060401566,NaN,NaN,0.024226472,19,42.22222222,ARR
59,87.77006938,0.058943089,0.05,0,0,0.103523035,0,0.103523035,0.100609756,0.153523035,0.208062331,NaN,NaN,240.55,240.55,18.04670812,29.41063553,18.04670812,29.41063553,18.04670812,29.41063553,55.30208637,66.70001103,63.55223268,0,0,37.30900864,45.55665547,0,37.30900864,45.55665547,37.30900864,45.55665547,74.95000526,6.616589041,NaN,NaN,NaN,1.67779059,41,40,4.283398184,240.55,4.337965966,5.511687421,240.5881335,0,0,-0.071359888,NaN,NaN,0.021749998,0,0,ARR
60,89.91080278,0.051058201,0.051984127,0.001984127,0.000992063,0.115013228,0.000992063,0.113029101,0.096031746,0.166997354,0.218981481,NaN,NaN,237,237,18.78114998,26.96288007,19.14697035,27.32877051,19.51290399,27.69461697,60.07564372,68.29270632,70.66109104,0.366243436,0.731755449,41.34936281,51.93244739,0.36672639,40.98356139,51.56664788,40.61784436,51.2008065,78.8780582,8.077049734,NaN,NaN,NaN,NaN,42,41,35.21224842,237,35.64968443,49.7395969,239.6015493,0.316333031,1.464725276,-0.07277493,NaN,NaN,0.020122975,2,4.87804878,ARR
61,89.91080278,0.048677249,0.083333333,0.118253968,0.064153439,0.189285714,0.054100529,0.071031746,0.072222222,0.272619048,0.320039683,0.001506279,0.001271498,238.6097561,238.6829268,30.13072612,32.78850283,53.17605309,55.83466129,72.66364379,75.32183902,98.17078106,100.8293467,112.6342745,23.09636907,42.53681495,68.05372268,82.51407889,19.55447817,45.00485548,59.47056167,25.53010313,39.98160415,115.2927904,NaN,-5.06017016,8.407041231,-6.879178849,3.19405858,42,41,14.0745022,238.6097561,14.24934744,14.64187061,239.024491,32.91439006,85.18766219,-0.024143173,0.064268964,-0.082742105,0.037529771,2,4.87804878,ARR
62,109.6119403,0.057788671,0.05,0,0,0.1,0,0.1,0.178213508,0.15,0.287636166,NaN,NaN,195.74,195.74,18.06053049,29.37399747,18.06053049,29.37399747,18.06053049,29.37399747,54.003436,65.36001299,92.14154746,0,0,36.01047587,74.14618134,0,36.01047587,74.14618134,36.01047587,74.14618134,103.5000101,7.558168961,NaN,NaN,NaN,1.276366281,51,50,7.941813395,195.74,8.022443009,11.90375117,195.9010464,0,0,-0.081935577,NaN,NaN,0.024070231,1,2,ARR
63,111.761194,0.043376068,0.050267094,0.001869658,0.00090812,0.105608974,0.000961538,0.103739316,0.095192308,0.155876068,0.193856838,NaN,NaN,192.5490196,192.5490196,18.12454543,24.60534417,18.45763259,24.93843134,18.81046834,25.29126709,56.07935236,62.56909404,63.41280193,0.335021837,0.686282715,37.98641433,45.31813126,0.354234083,37.65308728,44.98488983,37.30017316,44.631851,69.90251048,NaN,NaN,NaN,NaN,NaN,52,51,27.34551168,192.5490196,27.61761302,44.62062303,194.4811095,0.559360551,1.375538635,-0.053712483,NaN,NaN,0.017852034,2,3.921568627,ARR
64,105.3134328,0.055952381,0.101190476,0.07755102,0.040589569,0.170181406,0.036961451,0.092630385,0.06893424,0.271371882,0.347732426,NaN,NaN,203.1666667,203.6041667,36.75592447,47.00569223,51.20794512,61.46532885,64.35564633,74.60966994,97.68863372,107.9587417,114.7099755,14.48816039,27.60643054,60.96475101,77.98137578,13.18813155,46.50767052,63.52746255,33.36934735,50.38092326,124.9791859,NaN,NaN,NaN,NaN,NaN,49,48,101.7634785,203.1666667,102.8403707,152.6715615,227.2278592,17.9654788,55.28272248,-0.037066825,NaN,NaN,0.029438294,24,50,ARR
65,70.92537313,0.057575758,0.109090909,0.089309764,0.045875421,0.145875421,0.043434343,0.056565657,0.070875421,0.25496633,0.326430976,0.001426834,0.001350944,299.46875,299.4375,39.25261847,48.7517312,55.75618796,65.25593426,71.41159904,80.91053536,91.75003658,101.2500803,108.2187778,16.54900295,32.15910025,52.50257184,68.9699846,15.7481843,36.00789549,52.4763622,20.36574022,36.82321153,117.7187699,NaN,-5.075107416,10.58879972,-8.838935538,NaN,33,32,62.60839819,299.46875,63.61019617,81.47554423,305.9433669,23.92321615,64.45628749,-0.011712952,0.077018581,-0.108372059,0.046358038,14,43.75,ARR
66,34.3880597,0.066493056,0.0765625,0.022916667,0.011458333,0.127256944,0.011458333,0.104340278,0.092708333,0.203819444,0.277430556,NaN,NaN,472.2666667,472.2666667,28.02326024,41.80450896,32.42265396,46.20420044,36.82260686,50.60408286,74.46754622,88.2670779,87.20178886,4.402067986,8.800046063,46.47495911,59.20322433,4.401305519,42.07490555,54.8032997,37.6749343,50.40318152,101.0000116,NaN,NaN,NaN,NaN,2.429091455,16,15,437.3031697,472.2666667,452.6517846,690.7324898,643.6379935,1.997175802,17.60341957,-0.037731675,NaN,NaN,0.017852594,7,46.66666667,ARR
67,75.2238806,0.059920635,0.05,0,0,0.108015873,0,0.108015873,0.198412698,0.158015873,0.307698413,NaN,NaN,289.2647059,289.2647059,18.04948907,29.86578065,18.04948907,29.86578065,18.04948907,29.86578065,56.88447855,68.73530194,98.73624511,0,0,38.89150606,80.74033042,0,38.89150606,80.74033042,38.89150606,80.74033042,110.5882398,6.552763016,NaN,NaN,NaN,1.159711585,35,34,21.13028051,289.2647059,21.44804692,31.78812433,290.0354441,0,0,-0.073963007,NaN,NaN,0.021630612,7,20.58823529,ARR
68,77.37313433,0.054783951,0.050154321,0,0,0.1,0,0.1,0.081404321,0.150154321,0.191666667,NaN,NaN,275.6571429,275.6571429,18.11802986,28.77734287,18.11802986,28.77734287,18.11802986,28.77734287,54.0596799,64.74405766,58.03131729,0,0,36.01280741,39.98201152,0,36.01280741,39.98201152,36.01280741,39.98201152,68.71556053,NaN,NaN,NaN,NaN,2.112873092,36,35,43.52401167,275.6571429,44.15943231,62.47117674,279.0720337,0,0,-0.082126271,NaN,NaN,0.0266532,1,2.857142857,ARR
69,73.07462687,0.053594771,0.050408497,0.017892157,0.008578431,0.120343137,0.009313725,0.10245098,0.167810458,0.170751634,0.298611111,NaN,NaN,289.0606061,289,18.1355226,28.71867424,21.31508811,31.89823975,24.76953703,35.35268867,61.09282272,71.69756203,96.81909392,3.188358959,6.636611014,43.0086553,78.73206606,3.457668444,39.82671052,75.55037178,36.37204618,72.09549367,107.4245497,NaN,NaN,NaN,NaN,1.177646144,34,33,53.42677764,289.0606061,54.25514918,99.56926276,293.9565521,3.211111005,13.28263842,-0.068785508,NaN,NaN,0.020667159,9,27.27272727,ARR
70,81.67164179,0.060453216,0.075219298,0.043201754,0.022660819,0.122660819,0.020540936,0.079459064,0.142397661,0.197880117,0.319517544,NaN,NaN,264.3513514,263.3513514,26.87850977,37.25263522,34.74350627,45.11954593,41.90644252,52.28052232,70.70579103,81.10818483,104.2171141,7.88394965,15.02798795,43.87095958,77.38291845,7.198088434,36.00879051,69.52074251,28.85160412,62.35813434,114.6217006,6.489337884,NaN,NaN,NaN,1.782838917,38,37,9.067960277,264.3513514,9.1930415,9.510066142,264.5068333,11.0493194,30.11002603,-0.055843229,NaN,NaN,0.032287728,0,0,ARR
71,60.17910448,0.029563492,0.068551587,0.095734127,0.046924603,0.196825397,0.048809524,0.10109127,0.108630952,0.265376984,0.35297619,0.001361628,0.00141615,358.1851852,357.3333333,24.16433666,29.38328719,41.04672093,46.26903047,58.63304934,63.85460857,95.00000177,100.2222528,121.1852418,16.97102378,34.48195982,70.85637085,97.03946479,17.65549395,53.96992888,80.15415317,36.37568406,62.55761705,126.4074388,NaN,-7.915143568,10.47872311,-5.81862182,1.229811358,28,27,118.9472454,358.1851852,121.2131108,181.8712725,377.4189636,27.22976482,69.10847755,-0.039750816,0.098744285,-0.084666037,0.017091612,11,40.74074074,ARR
72,53.73134328,0.021555556,0.049444444,0.021888889,0.010333333,0.160333333,0.011555556,0.138444444,0.180666667,0.209777778,0.305666667,NaN,NaN,392.375,391.625,17.86777013,17.86777013,20.94625034,20.94625034,24.44620938,24.44620938,74.91757877,74.91757877,109.9587127,3.0954559,6.583627009,57.0884952,92.12864085,3.506366146,54.00466496,89.04554186,50.50500585,85.54501813,109.9587127,NaN,NaN,NaN,NaN,0.796895715,25,24,209.8290599,392.375,214.3420291,290.7999072,444.956599,4.808067363,13.18544906,-0.061723889,NaN,NaN,0.014211211,10,41.66666667,ARR
73,90.72,0.061044974,0.113227513,0.087367725,0.043452381,0.191666667,0.043915344,0.104298942,0.099206349,0.30489418,0.378174603,0.001381422,0.001396356,235.8536585,235.7804878,40.71299165,51.58745045,56.36871901,67.24846064,72.17422672,83.05025133,109.7317298,120.6098476,125.2441257,15.70808615,31.46344449,69.02709305,84.53774856,15.85629875,53.36963846,68.88272613,37.56646667,53.0752917,136.1219529,2.088056682,-5.453821589,9.080553279,-5.550452318,1.602424449,42,41,5.120789648,235.8536585,5.18440438,6.275149401,235.9092426,19.64369487,63.02782939,-0.016572499,0.078790461,-0.080048451,0.017006073,0,0,ARR
74,73.44,0.073284314,0.093545752,0.093545752,0.046568627,0.193300654,0.046977124,0.099754902,0.087581699,0.286846405,0.360375817,0.001382843,0.001394935,290.3030303,290.3030303,33.67403221,45.60900543,50.42813999,62.36893396,67.3363706,79.27402505,103.2424602,115.1818642,117.7880499,16.81045737,33.66673324,69.57852374,84.12272284,16.95653144,52.8229714,67.36871702,35.91339176,50.45645939,129.7272736,2.089220563,-5.713338241,8.777624477,-5.137818485,1.338141092,34,33,9.590035386,290.3030303,9.738726972,8.688118233,290.4613885,21.73486023,67.43372205,-0.020839552,0.079050711,-0.074461613,0.015354768,0,0,ARR
75,79.92,0.07042042,0.085735736,0.029654655,0.013888889,0.123273273,0.015765766,0.093618619,0.092417417,0.209009009,0.277177177,NaN,NaN,263.6388889,262.9444444,30.80382114,41.45507666,35.41292728,46.06594641,40.66243293,51.31499547,74.47333261,85.13922458,87.91852506,4.626940567,9.861741938,43.70652898,57.14413558,5.257502933,39.09449737,52.53340849,33.84520881,47.28260001,98.58359996,NaN,NaN,NaN,NaN,3.238100087,37,36,79.1177578,263.6388889,80.24005155,114.4921921,275.2545791,6.578319984,19.74618544,-0.040217846,NaN,NaN,0.025658725,16,44.44444444,ARR
76,70.64420218,0.084427609,0.107491582,0.08989899,0.04503367,0.188468013,0.04486532,0.098569024,0.086700337,0.295959596,0.372643098,0.00139144,0.001386338,303.46875,303.46875,38.69375357,54.90913946,54.91185323,71.13090643,71.0653433,87.28270139,106.5312633,122.750033,117.9375848,16.28615362,32.37505844,67.84687317,79.25194051,16.21858779,51.63165818,63.03804123,35.47368225,46.87761078,134.1562503,1.502441094,-6.242014286,10.23528082,-5.976199029,1.430837228,33,32,11.22492866,303.46875,11.40453892,10.5580995,303.6762771,23.44996541,64.87979986,-0.017968578,0.091230446,-0.087889032,0.016643619,1,3.125,ARR
77,77.06640238,0.04212963,0.096527778,0.017515432,0.009490741,0.118055556,0.008024691,0.100540123,0.090277778,0.214583333,0.263040123,NaN,NaN,276.5714286,276.5142857,34.69101537,43.43097544,38.20544594,46.94568497,41.17658733,49.91667106,77.37166364,86.1143254,86.20031513,3.521445531,6.485776426,42.68819698,51.5157935,2.98109395,39.17434879,48.0021713,36.20324153,45.03041109,94.94289286,NaN,NaN,NaN,NaN,1.283267517,36,35,104.5221195,276.5714286,106.0480706,157.4109871,295.6630321,4.220138073,12.98831591,-0.017391591,NaN,NaN,0.0130729,11,31.42857143,ARR
78,83.48860258,0.069230769,0.102136752,0.100712251,0.049287749,0.193803419,0.051424501,0.093091168,0.086324786,0.295940171,0.373860399,0.00135953,0.001418248,260.5789474,260.6315789,36.76855888,49.34407702,54.52898327,67.10924908,73.02905996,85.60641987,106.552669,119.1316284,122.0264966,17.80146028,36.26316507,69.79159866,85.26419716,18.53718297,52.03004482,67.50412563,33.53079212,49.00183889,134.6052653,NaN,-4.736938443,7.375145943,-4.554029557,1.391820895,39,38,22.72678871,260.5789474,23.03185993,38.24625143,261.5681455,21.15527581,72.60180832,-0.017145888,0.065625715,-0.063276734,0.016294664,1,2.631578947,ARR
79,70.64420218,0.09040404,0.099410774,0.111363636,0.053030303,0.198232323,0.058333333,0.086868687,0.103114478,0.297643098,0.421632997,0.001322291,0.001455487,305.6875,305.65625,35.75604538,51.44038645,54.81534094,70.50328627,75.81359713,91.50045056,107.1250428,122.8126741,136.093833,19.10065471,40.06335821,71.37863747,100.3450096,21.02194463,52.3147661,81.28431111,31.3162891,60.28183485,151.7812551,NaN,-4.603874602,6.129272415,-3.425810686,1.304891311,33,32,8.360762151,305.6875,8.49454284,8.08976692,305.8018149,21.41233834,80.18595755,-0.018142333,0.062302787,-0.044797133,0.015029902,0,0,ARR
80,55.65906838,0.074679487,0.05715812,0.003952991,0.002029915,0.104594017,0.001923077,0.100641026,0.086217949,0.161752137,0.224252137,NaN,NaN,379.08,378.88,20.49331397,36.92363246,21.25334631,37.68378402,21.97320891,38.4035938,58.20067849,74.64006415,64.2806891,0.762595842,1.480001528,37.72284759,43.80239985,0.722927627,36.96294572,43.04261217,36.24305079,42.32247096,80.72004236,NaN,NaN,NaN,NaN,NaN,26,25,59.32818554,379.08,60.55157581,101.0317521,383.6945139,1.183267154,2.965524997,-0.036294825,NaN,NaN,0.012822718,6,24,ARR
81,87.77006938,0.058401084,0.092411924,0.108604336,0.054065041,0.18001355,0.054539295,0.071409214,0.091192412,0.272425474,0.349525745,0.001382851,0.001394927,243.975,244.025,33.28032767,39.7289771,52.75606734,59.20615569,72.40441849,78.85364395,98.17507522,104.6251458,119.575052,19.52472927,39.12557208,64.90386831,86.30135107,19.71494946,45.43016503,66.83118097,25.79139807,47.18003777,126.0250235,NaN,-5.109120754,8.730781078,-6.689368995,2.651840774,41,40,12.74654365,243.975,12.90892655,17.59396675,244.3077465,29.15883703,78.3652508,-0.017881761,0.071414374,-0.081270944,0.035677385,1,2.5,ARR
82,83.82089552,0.07457265,0.102492877,0.092735043,0.047364672,0.197364672,0.04537037,0.10462963,0.124928775,0.29985755,0.401068376,0.001418915,0.001358863,252.9473684,252.9736842,36.92638631,51.52815666,53.97819929,68.58471553,70.32037343,84.92325354,107.9737073,122.5790101,129.8422646,17.10392664,33.39522531,71.05482209,92.92201854,16.41082191,54.00543684,75.87376682,37.66505278,59.52934986,144.4473689,1.729122073,-5.404822712,9.670364818,-6.353207064,1.474520759,39,38,5.155208753,252.9473684,5.224409282,8.417432952,252.999896,23.56874767,66.90997386,-0.016979766,0.077509983,-0.091684366,0.019461015,1,2.631578947,ARR
83,58.02985075,0.072427984,0.100205761,0.088374486,0.044444444,0.19382716,0.043930041,0.105452675,0.122736626,0.294032922,0.385185185,0.001397082,0.001380696,374.0769231,374.0769231,36.08209264,49.61785417,52.08286758,65.62159312,67.88819825,81.42515447,105.8461565,119.3846871,125.0769848,16.06098875,31.80781264,69.7720365,89.0013324,15.87735559,53.7747791,73.00567828,37.96821695,57.19518487,138.6153849,1.463223632,-5.953468161,10.34484752,-6.432197282,1.503533256,27,26,21.2058103,374.0769231,21.62576811,28.55266012,374.6775024,22.88177555,63.74615699,-0.016897043,0.08723512,-0.093817556,0.01872578,5,19.23076923,ARR
84,58.02985075,0.065123457,0.084773663,0.049074074,0.02654321,0.13755144,0.022530864,0.088477366,0.082510288,0.222325103,0.287139918,NaN,NaN,366.1923077,364.9230769,30.34505001,42.16063,39.382651,51.20036459,47.07651174,58.89216329,79.11792806,90.96199688,90.46460445,9.047118276,16.731805,48.816803,60.15902316,7.71389106,39.77723442,51.1223614,32.09563279,43.43013974,102.3076999,5.543121163,NaN,NaN,NaN,3.0609489,27,26,87.0605533,366.1923077,88.78469203,104.0584912,376.3991846,10.36956407,33.49281433,-0.049258885,NaN,NaN,0.033683314,6,23.07692308,ARR
85,62.32835821,0.077681992,0.115421456,0.088314176,0.044731801,0.19454023,0.043582375,0.106226054,0.120689655,0.309961686,0.401245211,0.001407138,0.001370639,347.3214286,347.3928571,41.61167573,56.78774329,57.68382592,72.86285133,73.39643766,88.5734011,111.6071512,126.7857488,129.285792,16.13157325,31.78591182,70.00234672,87.67984458,15.78599764,53.93478337,71.61304669,38.22041992,55.89591106,144.464286,1.353232807,-5.788579469,10.40162531,-6.483170625,1.354255181,29,28,25.27145986,347.3214286,25.73519506,24.05520628,348.2396035,22.99372636,63.70348271,-0.014750311,0.086496783,-0.095553446,0.017892534,6,21.42857143,ARR
86,79.20713578,0.093018018,0.097447447,0.093468468,0.047297297,0.191291291,0.046171171,0.097822823,0.09496997,0.288738739,0.376051051,0.001405818,0.00137196,275.6944444,275.6666667,35.06210999,50.8362344,52.0886806,67.86682895,68.72498174,84.50136918,103.9722565,119.7500114,119.7500855,17.08725004,33.66672631,68.9192278,84.69615775,16.69450979,51.89552348,67.67260784,35.25402268,51.03005303,135.527778,1.590927824,-5.860840212,9.415412644,-5.518178946,1.134973541,37,36,4.742359026,275.6944444,4.80962989,5.621097286,275.7352293,23.35119473,67.44848614,-0.019247108,0.083243085,-0.081467488,0.015027896,0,0,ARR
87,70.92537313,0.082575758,0.112457912,0.088804714,0.04452862,0.150757576,0.044276094,0.061952862,0.09469697,0.263215488,0.378030303,NaN,NaN,300,301.4375,41.19752786,58.50214797,57.73108439,75.03692804,74.16963449,91.47349164,96.03192536,113.3440947,120.719395,16.56477319,32.97245612,54.84795345,79.53250683,16.50983012,38.31760697,63.00615438,21.90513434,46.57000147,138.0312532,1.784059091,NaN,NaN,NaN,3.729698949,33,32,17.6475919,300,17.9299713,27.61603088,300.5186142,23.52643667,66.04705944,-0.017811322,NaN,NaN,0.052844202,3,9.375,ARR
88,64.47761194,0.063796296,0.090740741,0.103055556,0.052685185,0.202407407,0.05037037,0.099351852,0.096111111,0.293148148,0.382037037,0.001414291,0.001363487,325.1034483,325,32.83659078,43.07405745,51.58966442,61.83227089,69.6242237,79.86406694,105.4828024,115.7241922,126.7588034,18.8063999,36.79314581,72.658414,93.93254959,18.08066384,53.90063348,75.17675953,35.8681319,57.14006509,137.0000261,NaN,-5.458960891,8.208639053,-5.114356091,1.415329441,30,29,106.7398852,325.1034483,108.6292334,199.0813692,342.1778122,24.46853531,73.68020955,-0.023458392,0.07194989,-0.071566992,0.017820886,9,31.03448276,ARR
89,60.17910448,0.089980159,0.09593254,0.102480159,0.050992063,0.199801587,0.051488095,0.097321429,0.092063492,0.295734127,0.380654762,0.001382262,0.001395515,362.7037037,362.7037037,34.52625949,49.4848234,52.89435942,67.85803949,71.41091849,86.37213527,106.4444497,121.4074712,122.1112241,18.4308435,36.88889901,71.92932695,87.59441481,18.57675902,53.56141693,69.22842185,35.04357019,50.70660165,137.0740745,1.810725825,-5.852542224,9.176244919,-5.641996968,1.597694779,28,27,9.470479728,362.7037037,9.650886029,6.90306938,362.8273235,27.27162456,73.89650153,-0.0211677,0.081160292,-0.079341683,0.019299757,0,0,ARR
90,49.43283582,0.082004831,0.134178744,0.089371981,0.044927536,0.194565217,0.044444444,0.105193237,0.114371981,0.328743961,0.410507246,0.001396208,0.001381569,438.2727273,438.4090909,48.4121357,62.09256781,64.59604523,78.27799244,80.59440245,94.27503226,118.4545477,132.1364102,134.1818606,16.23861331,32.18250053,70.0476927,85.77383963,16.07632124,53.86953637,69.59699237,37.8714186,53.59478853,147.863638,NaN,-5.43087354,10.36510494,-6.736747421,1.609246723,23,22,31.03250762,438.2727273,31.76278418,36.67439622,439.3700035,23.48583658,64.49743508,-0.011217759,0.08376595,-0.097647155,0.02024535,6,27.27272727,ARR
91,49.43283582,0.081763285,0.100724638,0.096135266,0.048188406,0.198188406,0.04794686,0.10205314,0.119202899,0.298913043,0.407246377,0.00139234,0.001385438,438.5909091,438.6363636,36.27713603,53.68387246,53.59632772,71.00538943,70.86724795,88.27485096,107.590911,125.0000409,129.0455232,17.36898278,34.59123738,71.32027092,92.77373565,17.33575882,54.00565385,75.45985811,36.7338733,58.18474105,146.4545548,NaN,-5.264534324,9.252012535,-5.961618151,1.387318452,23,22,9.58056314,438.5909091,9.806019002,11.81432314,438.6955353,24.20994879,69.29597898,-0.015546458,0.076489307,-0.085348488,0.018912357,2,9.090909091,ARR
92,83.82089552,0.056980057,0.097435897,0.074216524,0.037962963,0.168162393,0.036253561,0.093945869,0.098931624,0.265598291,0.336396011,NaN,NaN,255.7105263,255.6842105,34.88697652,44.3726775,48.49273274,57.97895722,61.43951963,70.9253248,95.15863672,104.6579629,110.8958213,13.62456308,26.55296679,60.29400324,76.02874769,12.97378437,46.68998569,62.42535673,33.74463989,49.47724887,120.3947469,NaN,NaN,NaN,NaN,1.693175891,39,38,71.1506585,255.7105263,72.10574363,129.6251944,265.4247341,13.52159899,53.15131424,-0.028697659,NaN,NaN,0.020301247,15,39.47368421,ARR
93,53.73134328,0.082222222,0.095777778,0.097888889,0.049111111,0.194111111,0.048777778,0.096222222,0.086333333,0.289888889,0.372222222,0.001393901,0.001383876,403.3333333,403.4166667,34.54772581,49.58599439,52.21335529,67.25545641,69.79469367,84.83490881,104.4166775,119.4583998,118.9167629,17.71956991,35.25002797,69.87780736,84.37644306,17.63702123,52.21357394,66.71404513,34.63081633,49.1275211,133.958338,NaN,-5.45273023,8.840349152,-5.499919827,1.588875481,25,24,48.16955009,403.3333333,49.20557291,75.92994981,406.199561,23.89341208,70.60661912,-0.018551929,0.076776603,-0.077838053,0.018319029,3,12.5,ARR
94,83.82089552,0.066381766,0.09465812,0.092735043,0.047008547,0.189102564,0.045726496,0.096367521,0.10491453,0.283760684,0.371082621,NaN,NaN,255.9736842,256.9210526,34.50647948,44.00386256,51.87479201,61.37374562,68.76790505,78.26607671,103.4211712,112.9211479,125.8422883,17.4074634,34.26321849,68.92358877,91.34335099,16.93814016,51.55734783,73.97803441,34.66353638,57.08129769,135.3421533,NaN,NaN,NaN,NaN,1.463949954,39,38,112.7648897,255.9736842,114.2785802,147.3230773,279.7113644,21.70159715,68.60882204,-0.018931779,NaN,NaN,0.01775872,13,34.21052632,ARR
95,90.26865672,0.077645503,0.096825397,0.092526455,0.046230159,0.195634921,0.046296296,0.103108466,0.085912698,0.292460317,0.377579365,0.001387887,0.001389891,241.0487805,241.0731707,34.86170172,47.22298592,51.51735181,63.88445381,68.17387492,80.53800835,105.3414829,117.707371,123.7562412,16.72395187,33.31720744,70.49113558,88.90420426,16.7159265,53.83509668,72.24972563,37.1754352,55.58732372,136.1219519,2.045591454,-6.294965269,9.809312054,-5.654567789,1.302808415,42,41,4.230846191,241.0487805,4.283405301,5.433173566,241.0859072,23.79614756,66.75708581,-0.021470768,0.088633647,-0.082996267,0.015887807,0,0,ARR
96,77.37313433,0.067283951,0.08279321,0.052777778,0.027854938,0.149228395,0.02492284,0.096450617,0.09367284,0.232021605,0.310802469,NaN,NaN,279.0571429,278.7714286,29.86863081,43.20323911,40.18241622,53.5179612,49.41102424,62.74599334,84.08612108,97.42866729,99.22926614,10.32438727,19.54307598,54.23205307,69.37327018,9.242132438,43.91829188,59.05992397,34.69090904,49.8309777,112.5714686,NaN,NaN,NaN,NaN,1.613504863,36,35,191.0403013,279.0571429,193.8293584,263.2143206,338.1852831,9.045780463,39.10959569,-0.027478179,NaN,NaN,0.016735946,15,42.85714286,ARR
97,92.41791045,0.070090439,0.108204134,0.086821705,0.044509044,0.158268734,0.042312661,0.071447028,0.076873385,0.266472868,0.337596899,0.001424249,0.001353528,231.8095238,231.7857143,38.9560521,51.78752085,54.98088823,67.81447776,70.19358743,83.02569097,96.04763943,108.8809617,108.9762503,16.07264761,31.23836651,57.09725285,70.025161,15.27668107,41.0790267,54.00706522,25.8648118,38.7904753,121.8095243,1.249651935,-5.243422886,9.625211936,-6.610486362,2.018184779,43,42,12.91591505,231.8095238,13.07247732,17.16262281,232.1690681,20.52478639,62.58769518,-0.013712706,0.077962651,-0.090438254,0.025192783,2,4.761904762,ARR
98,86.4,0.068680556,0.101527778,0.094236111,0.047083333,0.191944444,0.047152778,0.097708333,0.098611111,0.293472222,0.377638889,NaN,NaN,244.1025641,244.025641,36.54405326,48.92609495,53.49306954,65.87732967,70.46483732,82.84807458,105.5897771,117.9744031,123.3333924,17.00320162,33.92311346,69.05407027,86.79637226,17.03035868,52.10817543,69.8517848,35.13420554,52.87448709,135.7179599,NaN,NaN,NaN,NaN,1.467029151,40,39,56.19827302,244.1025641,56.93292215,86.52881687,250.4881388,23.79691239,67.95667376,-0.017526342,NaN,NaN,0.018540573,11,28.20512821,ARR
99,90.72,0.06276455,0.090410053,0.097949735,0.048743386,0.160251323,0.049206349,0.062301587,0.072751323,0.250661376,0.329761905,0.001382275,0.001395503,236.6585366,236.6829268,32.54327078,43.75834778,50.10214457,61.32357842,67.81051976,79.02713852,90.24390543,101.4636202,107.4880599,17.61182852,35.26895569,57.71094892,74.95242941,17.77523438,40.15227049,57.3974701,22.45569626,39.68811619,118.7073187,2.264807318,-5.515252445,9.361819843,-7.220275829,2.949375639,42,41,11.68824666,236.6585366,11.83344784,8.905054744,236.9469942,25.43669201,70.65601859,-0.020273477,0.076136393,-0.087630786,0.038631287,1,2.43902439,ARR
100,110.16,0.067429194,0.091230937,0.090740741,0.046405229,0.158333333,0.044335512,0.067592593,0.064488017,0.24956427,0.311437908,0.001420351,0.001357426,195.2,195.18,32.84967343,44.50333614,49.54428861,61.20667391,65.52495939,77.18198897,89.60028507,101.2600045,100.2603618,16.76277805,32.680012,56.76292307,67.42214574,16.04639393,40.06982253,50.72877126,24.08751572,34.74466222,111.9200013,2.630026835,-6.347214597,10.1655589,-6.686468686,1.885197058,51,50,3.773592453,195.2,3.811904018,5.337583341,195.236472,23.72978552,65.48918399,-0.024264935,0.086737804,-0.09115564,0.025804616,0,0,ARR
101,75.6,0.09531746,0.104761905,0.101269841,0.05031746,0.20031746,0.050952381,0.099047619,0.09468254,0.305079365,0.415793651,0.001380133,0.001397645,283.2352941,283.2058824,37.71264086,53.44415931,55.79897561,71.53487129,74.14930213,89.8833863,109.794122,125.5295135,133.9118615,18.14599972,36.44164735,72.09181874,96.20745931,18.39979004,54.00488592,78.12279569,35.65197838,59.76620776,149.6470595,1.621728915,-5.642252373,8.636847624,-5.01210233,1.361943674,35,34,24.28150933,283.2352941,24.6466653,39.66241846,284.2742048,25.03754108,72.9874371,-0.018872981,0.079778088,-0.071259637,0.01634313,3,8.823529412,ARR
102,112.32,0.080876068,0.122382479,0.090064103,0.04599359,0.191025641,0.044070513,0.100961538,0.129220085,0.31340812,0.420833333,0.001417783,0.001359994,189.8235294,189.7647059,44.02034984,59.5493136,60.58896975,76.11851307,76.47130396,92.0003789,113.1176516,128.6470672,136.6666889,16.57708983,32.45110953,69.09838883,92.64721555,15.89439817,52.53040978,76.07937609,36.64838263,60.1966665,152.1960795,NaN,-2.035037688,3.846475121,-2.591247479,0.62662271,52,51,26.0525155,189.8235294,26.3117509,41.85654071,191.6029903,9.110312382,64.92259752,-0.005427246,0.030103328,-0.037065414,0.008183419,5,9.803921569,ARR
103,71.28,0.084455128,0.107959402,0.105235043,0.052083333,0.19465812,0.053151709,0.089423077,0.100480769,0.302617521,0.402297009,0.001354808,0.00142297,297.84375,297.8125,36.59895221,52.93979527,56.53659123,72.88060132,77.47343399,93.81533583,107.937858,124.2819023,127.2813353,19.98605632,40.875856,71.34930064,90.68871905,21.00069319,51.40872898,70.75604083,30.49003935,49.81760015,143.6250035,NaN,-4.955448889,8.419331851,-6.560670368,3.393783281,33,51,18.81008602,256.9215686,36.03060267,26.89989923,298.437127,30.74976537,81.8626055,-0.016825858,0.06977822,-0.077438258,0.037244138,4,7.843137255,ARR
104,75.6,0.063621795,0.108653846,0.092467949,0.046741453,0.193696581,0.045726496,0.101228632,0.119711538,0.302350427,0.405662393,0.001394701,0.001383077,282.0588235,282.1764706,37.56409026,47.73867654,54.38835134,64.56489504,71.06174066,81.23733359,108.3235329,118.5000311,136.500049,16.88476948,33.50002383,70.76748281,98.94251643,16.73948036,53.94724701,82.1228309,37.27025809,65.44333428,146.6764823,NaN,-5.835691101,9.843594261,-5.951477042,1.221631106,35,51,40.57523236,250.4313725,42.4230915,63.57439985,284.9623298,24.15271189,67.12427367,-0.016730394,0.085331865,-0.086899708,0.017194689,12,23.52941176,ARR
105,71.28,0.048076923,0.089529915,0.089690171,0.04599359,0.191132479,0.043696581,0.101442308,0.115010684,0.280662393,0.353472222,0.001427163,0.001350615,300.0625,299.34375,26.25796303,31.3198399,42.6342764,47.69659568,58.16019276,63.22235329,95.53126093,100.593771,111.3125246,16.44009946,31.90633144,69.28418248,85.0641278,15.60641555,52.91265029,68.6938567,37.38167972,53.15958663,116.3750157,NaN,-6.620041254,10.71886091,-6.70262672,1.488752848,33,51,21.70244442,263.4705882,34.03493829,35.51359459,300.8463063,23.83875209,63.95284645,-0.026578946,0.089209021,-0.098426825,0.018876855,1,1.960784314,ARR
106,79.92,0.081784188,0.10758547,0.09241453,0.046955128,0.192147436,0.045459402,0.099732906,0.102991453,0.299732906,0.388461538,0.00140901,0.001368768,271.2777778,271.3055556,36.83786837,51.61348837,53.97730311,68.75504678,70.58594636,85.36271314,107.0277809,121.8056054,123.0833824,17.1900078,33.75004645,70.19693457,86.25129596,16.66564451,53.06054911,69.11633807,36.44971628,52.50243669,137.8611149,NaN,-5.297118511,8.987840693,-5.552891747,1.405269523,37,51,61.15036618,246.6078431,55.9512335,94.94283565,278.0845195,22.17208538,67.60569875,-0.015661106,0.076954091,-0.080258068,0.016842883,15,29.41176471,ARR
107,71.28,0.070245726,0.087446581,0.093696581,0.04909188,0.193963675,0.044604701,0.100267094,0.129166667,0.281410256,0.39284188,0.001476773,0.001301005,297.375,297.53125,25.60766396,36.97223024,43.90750799,55.28518249,60.00393387,71.37587443,96.78178736,108.1562527,128.7505017,18.34994167,34.40663506,71.18942853,103.1574035,16.12571625,52.8789341,84.84652802,36.78313814,68.75082826,140.1250022,3.555389867,-5.460275716,7.095276763,-4.064278614,0.633846082,33,51,63.55349617,263.4901961,57.61792394,97.30092139,304.0903443,18.17381478,68.88229298,-0.032663712,0.062743262,-0.061277916,0.00974816,7,13.7254902,ARR
108,79.92,0.078685897,0.10758547,0.094337607,0.047863248,0.194925214,0.046474359,0.100587607,0.113888889,0.302510684,0.400587607,0.001407121,0.001370656,271.8611111,271.8055556,36.83945411,52.03018724,54.39441859,69.58976229,71.50417164,86.69653359,108.388898,123.5833985,128.9723459,17.61505907,34.66681723,71.55830595,92.14020534,17.18099076,54.0062125,74.58943533,36.89608732,57.47529047,144.1666669,1.687939085,-5.755411613,9.879324446,-6.299611481,1.508046952,37,51,7.184678056,247.0196078,21.94261416,8.721542646,271.956032,25.95795252,69.46286707,-0.018230026,0.082409153,-0.090450005,0.019747685,0,0,ARR
109,54,0.06784188,0.093536325,0.095726496,0.048611111,0.192948718,0.047115385,0.097222222,0.103792735,0.286485043,0.374198718,0.001406967,0.00137081,408.5,407.4583333,25.7109347,35.626219,43.75138194,53.66823952,61.33445175,71.25060405,95.62501201,105.5417012,113.5000356,18.05547139,35.6250744,69.91763873,87.79212537,17.59871031,51.87633971,69.75151959,34.29411811,52.16760299,123.4166699,NaN,-2.65131604,3.828695852,-2.450784251,NaN,25,51,238.0876939,310.9215686,178.2680682,341.6426902,472.8192043,11.7747194,71.2792561,-0.013072938,0.033226345,-0.03365568,0.009154478,9,17.64705882,ARR
110,77.37313433,0.073237179,0.111485043,0.089529915,0.045940171,0.167254274,0.043589744,0.077724359,0.089636752,0.278739316,0.361004274,0.001429698,0.00134808,280.6571429,280.7428571,38.88850204,52.486714,55.43189664,69.03260446,71.06096798,84.6592385,96.17144401,109.771468,109.8286743,16.57746724,32.17258977,57.28722388,70.94356865,15.68610868,40.74809048,54.40531944,25.12403509,38.77610549,123.4285718,1.264423855,-4.310665906,8.458761128,-6.451481252,2.19950208,36,51,7.946042527,252.9019608,24.15456078,7.179664188,280.7696056,19.22269554,64.43616569,-0.011802074,0.063527505,-0.08441706,0.028409119,0,0,ARR
111,62.32835821,0.069337607,0.111111111,0.090117521,0.04508547,0.158440171,0.045032051,0.06832265,0.105128205,0.269551282,0.375801282,0.001364126,0.001413652,340.6428571,340.75,38.86093488,51.64431882,54.89821439,67.68484266,71.50633775,84.289489,90.89287618,103.6787888,120.6429701,16.08915348,32.64542854,52.03918003,81.78658826,16.695987,36.00699596,65.75660904,19.41916439,49.1491646,133.428572,1.492879046,-5.466574874,10.57894106,-8.89436858,3.411230294,29,51,14.0387583,285.9803922,42.23316487,22.73506987,340.9320209,24.64779921,65.43056902,-0.013957704,0.081634724,-0.103554509,0.052098916,9,17.64705882,ARR
112,62.32835821,0.068429487,0.125534188,0.091987179,0.046688034,0.176549145,0.045299145,0.084561966,0.096207265,0.302083333,0.38840812,0.001400085,0.001377693,343.2142857,343.0357143,47.82311742,59.53657468,64.93210664,76.64662337,81.71723337,93.43058191,111.4286492,123.143035,129.6071885,17.1409978,33.89416844,63.60928135,81.78625794,16.84150939,46.50330287,64.68320198,29.72558709,47.89650823,141.3214304,NaN,-4.017918445,8.139999698,-6.167674192,2.293851955,29,51,188.1986711,287.3921569,146.8996798,271.0854724,391.4266032,20.32608895,67.87667563,-0.00830372,0.061911262,-0.080438261,0.027406327,7,13.7254902,ARR
113,103.1641791,0.073557692,0.083707265,0.077510684,0.039102564,0.173557692,0.03840812,0.096047009,0.08974359,0.257264957,0.333760684,NaN,NaN,206.0851064,205.4468085,29.2366074,42.00528769,43.02248494,55.79445197,56.57513444,69.34525034,91.19247424,103.9788598,105.7248421,13.81985518,27.34089585,61.98450175,76.51358923,13.59044783,48.19814584,62.72910617,34.64848632,49.17440444,118.510644,3.562940556,NaN,NaN,NaN,2.139015381,48,51,45.22277236,204.2745098,43.88023195,80.82661318,210.9885547,17.35507874,54.75119887,-0.036840844,NaN,NaN,0.023353316,13,25.49019608,ARR
114,73.07462687,0.069017094,0.099786325,0.087660256,0.043856838,0.190331197,0.043803419,0.10267094,0.109508547,0.290117521,0.391185897,0.001383618,0.00139416,294.1515152,294.2121212,37.8829014,49.45652465,53.76101851,65.33733447,69.72924134,81.30405624,107.7575867,119.3333554,137.7273308,15.92148177,31.84851571,69.88067592,99.84942487,16.00973655,54.00394268,83.97292632,38.03332854,68.00117735,149.3030307,1.391826727,-4.933168856,8.073986164,-4.672668241,0.860431488,34,51,9.205140896,260.7254902,28.16633245,9.886415475,294.2955122,17.90818236,63.77973403,-0.014439142,0.071801352,-0.069381256,0.012298557,1,1.960784314,ARR
115,47.28358209,0.065651709,0.083760684,0.061485043,0.030715812,0.165438034,0.030769231,0.103952991,0.092254274,0.249198718,0.330021368,NaN,NaN,384.952381,385,24.22421516,34.72291706,29.12646305,39.62751352,34.22247702,44.72242274,73.47740534,84.00013552,87.90621649,4.913495713,10.00010463,49.29266933,63.718312,5.102791241,44.38699994,58.8140065,39.29449771,53.71856776,98.42860021,5.587915703,NaN,NaN,NaN,NaN,22,51,185.198086,298,132.5926091,295.1646151,427.1845815,4.871798038,20.01639158,-0.054314286,NaN,NaN,0.022397595,10,19.60784314,ARR
116,141.8507463,0.080008418,0.09709596,0.120159933,0.061826599,0.211111111,0.058333333,0.090951178,0.072222222,0.308207071,0.397727273,0.001428177,0.0013496,147.2923077,147.3846154,35.03702099,50.40387083,57.26398665,72.65096135,78.26760759,93.64718625,111.0020323,126.3858525,127.893977,22.29116227,43.24705275,75.99213141,92.87856546,21.0388674,53.74029662,70.63628055,32.75346552,49.63242873,143.276932,4.152570807,-5.476790093,7.090189949,-5.034927168,3.430818352,66,65,93.42487283,147.2923077,94.15192561,186.6514543,174.4225638,28.87311055,86.57708242,-0.032150729,0.063544407,-0.060365747,0.027598397,32,49.23076923,ARR
117,70.64420218,0.062878788,0.104250842,0.103745791,0.053072391,0.199074074,0.050673401,0.095328283,0.083922559,0.303324916,0.383122896,0.001411969,0.001365809,303.5,303.3125,40.06657497,54.84619877,56.06819087,70.84906964,71.56524537,86.34562849,107.3750042,122.1562776,117.9062808,16.05822648,31.50005744,67.31503045,77.84526126,15.56526983,51.31846956,61.85002482,35.8182145,46.34690454,132.6875043,NaN,-5.693164301,10.11854809,-6.263238765,1.548683822,33,65,11.2832841,223.3692308,57.21998199,10.59774386,303.7096681,21.93367548,63.12355375,-0.014273659,0.085299109,-0.091770608,0.017805865,1,1.538461538,ARR
118,113.4588702,0.058922559,0.110143098,0.044444444,0.022811448,0.141456229,0.021632997,0.097011785,0.092003367,0.251599327,0.315824916,NaN,NaN,187,187.2115385,40.71791563,49.88704075,45.56335627,54.73341274,50.19807029,59.36765131,85.63499191,94.80777401,97.40441106,4.854846825,9.481106657,44.92697261,56.6942043,4.644871893,40.08136682,51.84887144,35.44837027,47.2139703,106.5769427,NaN,NaN,NaN,NaN,2.096767247,53,65,97.17965124,177.9076923,87.97912067,149.8629234,210.7436467,5.002280552,18.98082538,-0.016865577,NaN,NaN,0.017818914,24,36.92307692,ARR
119,83.48860258,0.066035354,0.07276936,0.031228956,0.015909091,0.130092593,0.015319865,0.098863636,0.097222222,0.202861953,0.273148148,NaN,NaN,260.5789474,260.5789474,18.09471343,31.03059217,18.5414389,31.47731764,19.01499489,31.95087363,55.00072665,67.94737172,65.47433931,0.450101313,0.921152392,36.92409982,47.39735695,0.475047825,36.4767371,46.95005176,36.00294782,46.47622482,78.42106117,NaN,NaN,NaN,NaN,NaN,39,65,20.88392933,217.6,36.82018808,34.89006004,261.4144723,0.751450427,1.846301529,-0.041209753,NaN,NaN,0.012655901,1,1.538461538,ARR
120,70.64420218,0.066877104,0.078451178,0.029755892,0.015193603,0.128619529,0.01456229,0.098863636,0.087962963,0.207070707,0.26763468,NaN,NaN,305.625,305.5625,22.19594906,33.82590856,22.19594906,33.82590856,22.19594906,33.82590856,58.15727441,69.81268851,64.28324041,0,0,36.01316572,42.13276627,0,36.01316572,42.13276627,36.01316572,42.13276627,75.93768336,NaN,NaN,NaN,NaN,3.085795728,33,65,8.495403169,240.0307692,46.76951456,8.584282518,305.7430498,0,0,-0.059689744,NaN,NaN,0.026851727,1,1.538461538,ARR
121,57.79980178,0.070075758,0.076809764,0.031018519,0.015867003,0.130050505,0.015151515,0.099031987,0.086784512,0.206860269,0.271843434,NaN,NaN,370.8076923,372.6153846,20.9486191,35.51162284,21.56387995,36.12700772,22.10238524,36.66543539,58.19450506,72.80798332,64.85032291,0.616305146,1.153852642,37.32415103,43.97026545,0.539285668,36.70870773,43.35493389,36.17032224,42.81641339,79.46154613,7.183751745,NaN,NaN,NaN,3.774246592,27,65,72.05394306,266.0461538,81.04160939,107.9658909,377.7434518,0.47412635,2.309443455,-0.079207084,NaN,NaN,0.029876222,8,12.30769231,ARR
122,87.77006938,0.066203704,0.071927609,0.02979798,0.015193603,0.127861953,0.014604377,0.098063973,0.092550505,0.199789562,0.268139731,NaN,NaN,244,244.025,18.80100532,31.49013333,19.22603507,31.91517551,19.65104077,32.3401613,55.15267461,67.90028586,64.90446732,0.425430545,0.850036595,36.4426351,46.18420254,0.42585821,36.01766398,45.75925688,35.59290086,45.3342685,77.65006769,NaN,NaN,NaN,NaN,3.143445169,41,65,9.526279442,210.5692308,27.48142931,9.053061494,244.1858923,0.39233869,1.701325349,-0.090388974,NaN,NaN,0.031725555,1,1.538461538,ARR
123,84.24,0.046011396,0.048931624,0.080769231,0.039529915,0.184615385,0.041239316,0.103846154,0.112037037,0.233547009,0.324430199,NaN,NaN,252.5526316,251.7894737,16.51452661,26.66629838,31.10929326,41.26731113,46.34476832,56.50151251,83.63164535,93.789502,106.0790807,14.64738091,29.84283246,67.13409651,89.58042325,15.26405061,52.52930426,74.97635685,37.29145189,59.73768953,116.2368859,NaN,NaN,NaN,NaN,0.770572093,39,38,6.718777177,252.5526316,6.808966141,10.78700081,252.6419872,15.13206173,59.75426398,-0.042442048,NaN,NaN,0.009800868,2,5.263157895,ARR
124,58.32,0.049145299,0.051068376,0.021652422,0.010683761,0.127635328,0.010968661,0.105982906,0.105840456,0.178703704,0.23525641,NaN,NaN,374,374,18.01912978,24.938418,18.05740505,24.97685011,18.05740505,24.97685011,56.50299459,63.46154347,65.00283837,0.038461538,0.038461538,38.54802338,47.04656896,0,38.50957465,47.00811767,38.50957465,47.00811767,71.96154785,9.127454456,NaN,NaN,NaN,1.457678685,27,38,21.10231486,335.1842105,37.03588593,28.38968827,374.5948581,0,0.076923077,-0.079424171,NaN,NaN,0.022115017,6,15.78947368,ARR
125,54,0.073290598,0.086182336,0.083262108,0.041951567,0.186253561,0.041310541,0.102991453,0.106695157,0.272435897,0.361396011,0.001411111,0.001366667,397.8333333,397.7916667,37.67127804,52.83591466,55.25558882,70.42203963,72.29473979,87.46032909,109.1250017,124.2917158,127.5833847,17.63701786,34.62508721,71.46091957,89.91792172,17.10342805,53.8804635,72.33894055,36.83971257,55.29442955,142.7500112,NaN,-5.359861923,9.327537942,-5.926448851,1.480008344,25,38,15.73389829,351.8157895,39.16840893,15.72242688,398.1443415,24.45147658,69.36553312,-0.015616726,0.078091661,-0.085070699,0.018573764,2,5.263157895,ARR
126,62.64,0.060536398,0.05,0,0,0.1,0,0.1,0.077873563,0.15,0.189942529,NaN,NaN,347.25,347.25,18.05445544,30.36970613,18.05445544,30.36970613,18.05445544,30.36970613,54.00257482,66.35714368,56.07403948,0,0,36.01060994,38.08114974,0,36.01060994,38.08114974,36.01060994,38.08114974,68.42857314,6.869930535,NaN,NaN,NaN,NaN,29,28,25.20009212,347.25,25.6625177,24.02559221,348.1631904,0,0,-0.077554194,NaN,NaN,0.024202529,6,21.42857143,ARR
127,77.76,0.058564815,0.05,0,0,0.1,0,0.1,0.082407407,0.15,0.193364198,NaN,NaN,275.7714286,275.7714286,18.05682883,29.87079718,18.05682883,29.87079718,18.05682883,29.87079718,54.00250735,65.85714581,57.83113911,0,0,36.01153497,39.83871358,0,36.01153497,39.83871358,36.01153497,39.83871358,69.68571795,7.081003393,NaN,NaN,NaN,NaN,36,35,4.611078054,275.7714286,4.678396623,5.093927452,275.809976,0,0,-0.079294524,NaN,NaN,0.025238259,0,0,ARR
128,71.28,0.05,0.045910494,0.057407407,0.02816358,0.142901235,0.029243827,0.085493827,0.099768519,0.188811728,0.280015432,NaN,NaN,299.46875,299.46875,16.44020425,26.44921459,27.35698205,37.38458243,38.73355742,48.7560064,69.31304858,79.34382163,93.68816888,10.98699361,22.31352304,52.91256452,77.28488749,11.40543618,41.97516438,66.34830786,30.59986462,54.97141414,103.7187863,NaN,NaN,NaN,NaN,1.42292923,33,35,14.71602947,297.8,14.36814287,22.36626343,299.8301081,14.55402707,44.70595283,-0.06386862,NaN,NaN,0.020681931,4,11.42857143,ARR
129,64.8,0.058410494,0.050617284,0.007098765,0.003472222,0.103472222,0.003626543,0.096373457,0.08587963,0.154089506,0.206712963,NaN,NaN,324.8275862,324.7586207,18.48458754,29.93843971,18.48458754,29.93843971,18.48458754,29.93843971,54.44969927,65.93114228,60.34697481,0,0,36.008437,41.90170294,0,36.008437,41.90170294,36.008437,41.90170294,71.82758903,5.559928056,NaN,NaN,NaN,1.903433439,30,35,112.2749301,319.0571429,103.8281641,209.5101308,343.6838965,0,0,-0.059032501,NaN,NaN,0.020012071,9,25.71428571,ARR
130,60.17910448,0.06566358,0.049614198,0.007098765,0.003472222,0.104166667,0.003626543,0.097067901,0.086728395,0.153780864,0.211959877,NaN,NaN,362.7037037,362.7037037,18.05509574,33.53029912,18.05509574,33.53029912,18.05509574,33.53029912,54.33582859,69.85185256,58.92835385,0,0,36.34423328,40.93562298,0,36.34423328,40.93562298,36.34423328,40.93562298,74.4444455,6.402812628,NaN,NaN,NaN,NaN,28,35,9.525073402,349.5428571,14.47740882,7.263836012,362.8287526,0,0,-0.078081066,NaN,NaN,0.024445675,0,0,ARR
131,49.43283582,0.070833333,0.09220679,0.064197531,0.032407407,0.135030864,0.031790123,0.070833333,0.10162037,0.227237654,0.328780864,0.001407531,0.001370247,438.3181818,438.4090909,42.04838443,57.91043049,58.36925493,74.23286981,74.23245076,90.09423624,95.90910109,111.7728128,125.090958,16.37031665,32.18409457,53.86626157,83.04635145,15.95308844,37.55353685,66.73362273,21.70168442,50.86942898,140.9545457,1.054124213,-5.246993269,10.63139768,-8.542784054,2.777832106,23,35,31.19496807,395.6285714,42.53083141,37.06701659,439.4268478,24.07894164,64.50749966,-0.011801128,0.07994745,-0.106177959,0.043352879,7,20,ARR
132,49.43283582,0.047222222,0.047916667,0.018209877,0.008796296,0.116126543,0.00941358,0.097916667,0.095524691,0.16404321,0.207947531,NaN,NaN,438.5,438.5,17.04023773,21.652696,20.16740487,24.78779559,23.57750942,28.19543028,60.13676275,64.77285836,68.00101436,3.156623925,6.545712723,43.14740905,51.00634878,3.422241828,40.01113058,47.87073872,36.6022075,44.46082552,72.63637769,7.908287323,NaN,NaN,NaN,2.639383454,23,35,13.66731336,395.7428571,36.10821637,21.62334759,438.712942,4.738646916,13.12457848,-0.068279095,NaN,NaN,0.0250091,6,17.14285714,ARR
133,70.92537313,0.063966049,0.079475309,0.059104938,0.029475309,0.160648148,0.02962963,0.10154321,0.104012346,0.240123457,0.332021605,NaN,NaN,303.6875,303,29.01630184,41.31931408,40.3270137,52.631886,51.73323781,64.03745718,88.75063823,101.0626686,111.1879068,11.32159625,22.7189704,59.75305586,82.18960018,11.41328348,48.44054867,70.87761802,37.0347086,59.47083869,123.5000699,NaN,NaN,NaN,NaN,NaN,33,35,170.8261978,301.6571429,165.7374598,287.8915205,348.4360594,8.034123468,45.45385012,-0.032032272,NaN,NaN,0.012895145,14,40,ARR
134,88.11940299,0.048712737,0.05,0,0,0.10901084,0,0.10901084,0.120934959,0.15901084,0.22601626,NaN,NaN,238.925,238.925,18.05654407,26.20270325,18.05654407,26.20270325,18.05654407,26.20270325,57.22724517,65.40074902,73.45199214,0,0,39.23606424,55.458036,0,39.23606424,55.458036,39.23606424,55.458036,81.62565264,NaN,NaN,NaN,NaN,NaN,41,40,49.12758263,238.925,49.75343694,79.66236279,243.9235024,0,0,-0.079073321,NaN,NaN,0.02374813,15,37.5,ARR
135,53.73134328,0.052642276,0.05,0,0,0.103726287,0,0.103726287,0.094512195,0.153726287,0.201897019,NaN,NaN,403.375,403.375,18.01611637,29.83722339,18.01611637,29.83722339,18.01611637,29.83722339,54.20908507,66.04166728,58.66732797,0,0,36.21139589,40.66936836,0,36.21139589,40.66936836,36.21139589,40.66936836,70.50000107,3.673212692,NaN,NaN,NaN,NaN,25,40,44.75098928,333.85,64.86139858,70.40622073,405.8497772,0,0,-0.041122983,NaN,NaN,0.012690904,2,5,ARR
136,88.11940299,0.057452575,0.063685637,0.022493225,0.011517615,0.131639566,0.01097561,0.109146341,0.094173442,0.195325203,0.266598916,NaN,NaN,242.975,242.025,22.632238,33.93547239,26.3817336,37.68563815,30.00711949,41.31048155,69.32612859,80.6502337,83.27657469,3.756288294,7.375368955,46.73216455,60.67916154,3.635209916,42.9821729,56.92987188,39.35975456,53.30488639,94.60015251,NaN,NaN,NaN,NaN,NaN,41,40,78.92480203,242.975,79.93025405,121.9490145,255.4720631,4.391952543,14.76686717,-0.054818247,NaN,NaN,0.022464635,15,37.5,ARR
137,90.26865672,0.059656085,0.05,0,0,0.10271164,0,0.10271164,0.095568783,0.15271164,0.203439153,NaN,NaN,241.0731707,241.0731707,18.05471387,29.62238722,18.05471387,29.62238722,18.05471387,29.62238722,54.95353339,66.56098945,61.70992399,0,0,36.96223375,43.71537535,0,36.96223375,43.71537535,36.96223375,43.71537535,73.31707892,7.10460271,NaN,NaN,NaN,1.923713258,42,41,4.506852473,241.0731707,4.562840365,5.828325231,241.1152948,0,0,-0.077681308,NaN,NaN,0.024320909,0,0,ARR
138,75.2238806,0.054100529,0.077777778,0.058002646,0.02989418,0.155092593,0.028108466,0.097089947,0.097685185,0.23287037,0.304100529,NaN,NaN,287.3529412,287.6764706,29.85964434,37.71089923,43.15289882,51.00497914,55.6527165,63.50440201,89.55898305,97.41188583,108.8531746,13.30596533,25.79432813,59.70811509,79.00136216,12.51190149,46.41443601,65.70814018,33.91517748,53.20751068,116.7059871,NaN,NaN,NaN,NaN,NaN,35,41,205.6483124,279.4634146,189.7378509,255.7105946,353.359507,10.11895258,51.61219495,-0.020857462,NaN,NaN,0.013381338,10,24.3902439,ARR
139,40.8358209,0.063161376,0.071560847,0.033730159,0.016931217,0.132671958,0.016798942,0.098941799,0.086375661,0.204232804,0.269179894,NaN,NaN,506.7777778,506.7777778,23.13559903,37.22749312,26.246302,40.33861226,29.24647221,43.33855639,65.66757032,79.77795901,76.05695157,3.112777946,6.111116562,42.56228644,52.94807996,3.00172488,39.45097741,49.83710865,36.45165068,46.83704135,90.16669703,NaN,NaN,NaN,NaN,2.385908669,19,41,355.22005,378.2439024,253.4087774,566.7648066,618.8739775,1.851362614,12.22561939,-0.044870505,NaN,NaN,0.019301213,8,19.51219512,ARR
140,92.41791045,0.051614987,0.05,0,0,0.115826873,0,0.115826873,0.094702842,0.165826873,0.216795866,NaN,NaN,231.8095238,231.8095238,18.05346913,26.44222347,18.05346913,26.44222347,18.05346913,26.44222347,59.83590535,68.26197926,69.90748471,0,0,41.84198767,51.91090433,0,41.84198767,51.91090433,41.84198767,51.91090433,78.33340221,NaN,NaN,NaN,NaN,NaN,43,42,13.2345833,231.8095238,13.39500834,17.85845597,232.1870141,0,0,-0.076399786,NaN,NaN,0.020367779,3,7.142857143,ARR
141,88.56,0.055167959,0.05878553,0.012855297,0.006459948,0.122674419,0.006395349,0.109819121,0.094250646,0.181459948,0.245219638,NaN,NaN,238,238,21.41585624,32.23092247,23.91449807,34.73095438,26.38979213,37.20571242,65.92554988,76.75016537,78.70069522,2.505274492,4.975060333,44.52866146,57.30226114,2.480696144,42.02846025,54.80262766,39.5547371,52.32749636,89.52507373,NaN,NaN,NaN,NaN,NaN,41,42,70.51170116,237.8333333,69.6466887,110.3447946,248.2255023,3.057555605,9.961030969,-0.038960281,NaN,NaN,0.015269904,12,28.57142857,ARR
142,110.16,0.057189542,0.05,0,0,0.1,0,0.1,0.175490196,0.15,0.284803922,NaN,NaN,195.18,195.18,18.06143317,29.37427582,18.06143317,29.37427582,18.06143317,29.37427582,54.00348941,65.36001418,91.20160862,0,0,36.01062398,73.20635481,0,36.01062398,73.20635481,36.01062398,73.20635481,102.560009,7.60545786,NaN,NaN,NaN,NaN,51,50,3.636976766,195.18,3.673901335,5.227438581,195.2138827,0,0,-0.08256854,NaN,NaN,0.024251505,0,0,ARR
143,75.6,0.063562092,0.053267974,0.002287582,0.001198257,0.102178649,0.001089325,0.099891068,0.11040305,0.155446623,0.237799564,NaN,NaN,283.1764706,283.1764706,19.80206491,33.86550648,20.44877037,34.51252804,21.03700983,35.10069296,56.91379169,71.02978394,64.82776473,0.648009236,1.235369138,37.19443744,45.09723315,0.58862695,36.5473862,44.45019154,35.95907826,43.86189399,78.94118498,7.534195169,NaN,NaN,NaN,3.807141448,35,50,22.65400963,255.12,30.03826458,36.45506184,284.0811814,0.586995315,2.472005324,-0.082266203,NaN,NaN,0.031166381,3,6,ARR
144,110.16,0.046895425,0.051416122,0.003921569,0.001851852,0.107461874,0.002069717,0.103540305,0.098638344,0.158877996,0.204956427,NaN,NaN,193.6,193.6,18.54364943,25.83356255,19.22278326,26.51301155,19.98264185,27.27279742,57.26079683,64.5603475,66.50090617,0.683159864,1.440161182,38.74533841,47.98386712,0.76126269,38.06539179,47.30393358,37.30518622,46.54374265,73.80038503,NaN,NaN,NaN,NaN,1.38046567,51,50,36.51027253,193.6,36.8809447,57.41577683,197.0125884,1.005843366,2.884583736,-0.050390709,NaN,NaN,0.016509246,5,10,ARR
145,120.96,0.054613095,0.115376984,0.078819444,0.041369048,0.161904762,0.037450397,0.083085317,0.065972222,0.277281746,0.342956349,NaN,NaN,174.2,174.2363636,41.38442552,51.42295176,56.54043222,66.58728217,70.26974868,80.3133513,100.055961,110.1093931,113.8561926,15.19511581,28.89335608,58.69650084,72.49326206,13.77079298,43.53399003,57.33438487,29.81562998,43.60627339,123.9091371,NaN,NaN,NaN,NaN,NaN,56,55,97.61266684,174.2,98.51234177,171.1373196,199.6844329,18.93213377,57.85926487,-0.029796166,NaN,NaN,0.031292971,29,52.72727273,ARR
146,75.6,0.051587302,0.114037698,0.08234127,0.042559524,0.149652778,0.039781746,0.067311508,0.07296627,0.263690476,0.330753968,0.001406052,0.001371726,282.0882353,282.1176471,40.73703972,48.58943837,57.03356313,64.88644404,72.97414645,80.82645564,93.55885195,101.4118221,111.2353156,16.32809915,32.23720159,52.825306,70.50085455,16.00263778,36.53467693,54.21086805,20.60317983,38.27203525,119.0882541,NaN,-4.21235009,8.696891162,-7.201964072,NaN,35,55,40.88316758,245.6545455,43.4529978,64.17705365,285.0354467,19.77687005,64.56793852,-0.009235044,0.064375011,-0.08773209,0.038212285,12,21.81818182,ARR
147,71.28,0.052529762,0.076736111,0.029563492,0.015873016,0.122271825,0.013690476,0.092708333,0.079761905,0.199007937,0.246378968,NaN,NaN,299.96875,299.96875,18.05323331,26.63928193,18.05323331,26.63928193,18.05323331,26.63928193,54.09626306,62.71875172,58.87746995,0,0,36.10409022,40.88374868,0,36.10409022,40.88374868,36.10409022,40.88374868,67.50000617,7.769513172,NaN,NaN,NaN,1.574207523,33,55,21.98505796,257.6909091,36.68289423,35.99716719,300.7733262,0,0,-0.076654991,NaN,NaN,0.023852667,1,1.818181818,ARR
148,25.92,0.056448413,0.081696429,0.03125,0.016666667,0.12390873,0.014583333,0.09265873,0.081498016,0.205605159,0.260763889,NaN,NaN,773.4545455,772.8181818,26.21605087,38.27948187,27.67051666,39.73403621,29.30686359,41.37034077,65.27361194,77.36407607,79.00270995,1.455504075,3.090924659,39.10267798,52.822707,1.636928692,37.64809489,51.36819701,36.01176391,49.73178265,91.0909267,NaN,NaN,NaN,NaN,2.874297514,12,55,821.9387683,352.2,416.8538699,1314.614244,1128.634251,0.819407849,6.183357426,-0.048382874,NaN,NaN,0.022669333,4,7.272727273,ARR
149,73.44,0.056150794,0.075694444,0.02797619,0.015079365,0.126388889,0.012896825,0.098412698,0.147767857,0.202083333,0.315376984,NaN,NaN,288.3939394,288.3939394,18.04917551,28.89199528,18.04917551,28.89199528,18.04917551,28.89199528,57.03238067,67.90909703,99.09184283,0,0,39.03945586,81.09591624,0,39.03945586,81.09591624,39.03945586,81.09591624,109.9697018,6.677641433,NaN,NaN,NaN,1.161696862,34,55,18.23074226,251.0181818,32.50844283,28.97869301,288.9695905,0,0,-0.073776263,NaN,NaN,0.021608076,7,12.72727273,ARR
150,79.92,0.05530754,0.072371032,0.024751984,0.013392857,0.11875,0.011359127,0.093998016,0.075099206,0.191121032,0.239186508,NaN,NaN,271.8055556,271.8055556,18.17190365,28.89465508,18.17190365,28.89465508,18.17190365,28.89465508,54.11364658,64.86226234,57.91941994,0,0,36.012835,39.81619651,0,36.012835,39.81619651,36.012835,39.81619651,68.66788789,NaN,NaN,NaN,NaN,2.137010091,37,55,7.21425843,243.3454545,23.97252419,8.796567048,271.9012791,0,0,-0.081928307,NaN,NaN,0.026676068,2,3.636363636,ARR
151,75.2238806,0.057936508,0.073263889,0.028422619,0.015178571,0.125545635,0.013244048,0.097123016,0.130952381,0.198809524,0.302777778,NaN,NaN,290.2647059,290.2352941,18.65983169,30.43226174,19.71783785,31.4902679,20.83547449,32.60790455,58.64885878,70.44176628,94.35385071,1.060928569,2.176566646,40.03832161,75.7399563,1.118607817,38.97944766,74.6811657,37.86175517,73.56340905,106.1474093,NaN,NaN,NaN,NaN,1.394625852,35,55,79.0600326,254.2545455,68.93441514,115.2321727,300.8389739,1.04644095,4.356103032,-0.066573567,NaN,NaN,0.021222463,11,20,ARR
152,77.06640238,0.057589286,0.08343254,0.045486111,0.024305556,0.129662698,0.021180556,0.084176587,0.122420635,0.213095238,0.316170635,NaN,NaN,281.0857143,282.2,24.52844377,34.3244209,30.81413462,40.61152152,36.47192959,46.26788446,66.77448866,76.60006793,102.1436663,6.298313631,11.94352983,42.29225487,77.66204207,5.681434325,36.00816787,71.37814586,30.35484436,65.72077102,111.971532,6.823437384,NaN,NaN,NaN,1.567951997,36,55,8.278617651,249.1090909,26.592396,9.692504149,281.2076,8.090801486,23.92327778,-0.059817695,NaN,NaN,0.029234582,1,1.818181818,ARR
153,62.64,0.041220238,0.085416667,0.074454365,0.03764881,0.168849206,0.036805556,0.094394841,0.103521825,0.254265873,0.340178571,0.001355558,0.001422219,340.6428571,340.6785714,27.62132177,33.43943538,44.50896469,50.33052162,62.18177687,68.00249833,98.46428652,104.2857453,125.0000532,16.97451018,34.57189507,70.86164494,97.39526103,17.74087864,53.97119557,80.50594395,36.29103462,62.82347402,130.8214532,NaN,-7.633190814,10.42872219,-5.786052895,1.229179634,29,55,14.46230145,279.4909091,45.24913128,23.5631248,340.949724,27.23253367,69.2872839,-0.035096803,0.098468409,-0.084062688,0.017122547,9,16.36363636,ARR
154,62.64,0.038095238,0.071775794,0.038343254,0.019791667,0.151041667,0.018551587,0.112698413,0.136656746,0.22281746,0.309424603,NaN,NaN,343.2857143,343.2857143,17.74561043,17.74561043,22.34669149,22.34669149,27.52514849,27.52514849,76.32221951,76.32221951,109.2860475,4.622720312,9.786078174,58.61189837,91.57482709,5.186977801,54.00418395,86.96796708,48.82598705,81.78875144,109.2860475,NaN,NaN,NaN,NaN,0.791604037,29,55,187.0016916,280.8363636,141.9668397,270.3906842,390.9152265,6.610912327,19.59577629,-0.058922953,NaN,NaN,0.013787308,9,16.36363636,ARR
155,101.52,0.058035714,0.0625,0.026190476,0.01359127,0.122867063,0.012599206,0.096676587,0.090277778,0.185367063,0.244494048,NaN,NaN,210.6086957,210.6086957,18.65614089,30.90258689,21.56828093,33.81547194,24.43758506,36.68455924,60.80666549,73.08696569,70.19772314,2.919092396,5.782655208,42.20466752,51.59473523,2.874651801,39.29173824,48.68198369,36.42215568,45.81213363,82.47827051,NaN,NaN,NaN,NaN,NaN,47,55,49.43308092,203.9636364,46.03504501,78.16321638,216.3322726,2.973522491,11.57639941,-0.06889106,NaN,NaN,0.021681725,14,25.45454545,ARR
156,73.44,0.068204365,0.096428571,0.071230159,0.035912698,0.170882937,0.03531746,0.099652778,0.117757937,0.267311508,0.367559524,0.001379665,0.001398113,290.969697,291.0909091,39.09471517,54.88055494,54.79120861,70.57933191,70.69879079,86.48578122,108.6666768,124.4545621,137.8182318,15.73886691,31.60609131,69.57754731,98.72820314,15.94781288,53.88269835,83.03343651,37.97250108,67.12235245,153.606062,NaN,-4.945933725,8.11436841,-4.652837401,0.830839431,34,55,7.891248887,250.6727273,32.099925,7.891599569,291.0766847,17.72122942,63.2927711,-0.013865828,0.072590798,-0.069280639,0.012043438,0,0,ARR
157,66.96,0.06577381,0.089136905,0.074503968,0.03764881,0.171329365,0.036855159,0.096825397,0.090376984,0.26046627,0.332886905,0.001384976,0.001392802,320.3,320.3,34.40788229,46.30314341,51.23764684,63.13920438,68.10331621,80.00141248,104.266707,116.1667154,119.3668522,16.89148655,33.70006552,69.86964872,84.96829598,16.9195933,53.03870854,68.13894334,36.17134203,51.26875234,131.2666675,2.176266155,-5.973171665,9.272359674,-5.443917673,1.372473468,31,55,12.14399715,266.4181818,41.1685357,12.38291178,320.5301338,23.01376688,67.51114537,-0.021393036,0.08305418,-0.079138709,0.016044248,1,1.818181818,ARR
158,70.92537313,0.072916667,0.096081349,0.072519841,0.036755952,0.168303571,0.035763889,0.09578373,0.089236111,0.264384921,0.336259921,0.001390164,0.001387614,302.125,302.15625,38.91212967,54.84650043,55.09901261,71.03680732,71.28389408,87.2201083,106.875011,122.81253,118.4375803,16.25129044,32.37506288,67.97170312,79.53307581,16.24586994,51.78749657,63.3501226,35.5983362,47.15865601,134.3750005,1.458370558,-6.070516259,9.929379407,-5.771468001,1.379311905,33,55,9.486009435,257.2,35.34582588,10.34855603,302.2738824,22.74910638,64.87222327,-0.017374983,0.088811448,-0.084928033,0.016009409,1,1.818181818,ARR
159,79.52238806,0.055803571,0.093551587,0.039285714,0.020138889,0.135565476,0.019146825,0.096279762,0.087450397,0.229117063,0.288541667,NaN,NaN,267.3333333,267.2777778,35.70043458,46.91878392,41.64474138,52.86383869,47.61659,58.835245,83.5836701,94.80559657,93.72265526,5.957991248,11.91683179,47.89159591,58.02935225,5.988038951,41.94769922,52.08601601,35.97610636,46.11316359,104.9444538,NaN,NaN,NaN,NaN,1.456148376,37,55,109.7355407,239.8,92.37594685,174.3062611,288.979238,7.036973167,23.86286199,-0.017996333,NaN,NaN,0.014341222,13,23.63636364,ARR
160,64.8,0.059672619,0.073809524,0.071478175,0.036607143,0.167261905,0.034871032,0.09578373,0.087797619,0.241071429,0.305952381,0.001409685,0.001368093,330.137931,329.7241379,22.07812173,34.07438451,39.07343767,51.0736207,55.55436241,67.55338688,91.20691146,103.2069281,103.6897524,17.04346174,33.48288014,69.14034502,81.62214508,16.52140496,52.14182671,64.62481601,35.65853126,48.13958577,115.6896877,NaN,-5.622996201,7.834227539,-4.59699829,1.183850611,30,55,25.75042569,269.5818182,48.22280266,17.30061341,331.1406619,19.05502788,67.04774684,-0.028279375,0.070002322,-0.06698004,0.013370661,4,7.272727273,ARR
161,69.12,0.078819444,0.093402778,0.086259921,0.042559524,0.174206349,0.043700397,0.087946429,0.09469246,0.267609127,0.36344246,0.001342677,0.001435101,307.2580645,307.4193548,35.62032429,51.42275409,55.29385103,71.10095002,76.29212602,92.09760161,107.0968804,122.9035707,134.8065642,19.72329557,40.67822201,71.48907205,99.19507995,21.03146157,51.8087522,79.52016224,30.81399064,58.51730795,150.6129091,NaN,-5.064653099,6.960414253,-4.279905202,1.859835306,32,55,8.431766898,263.3818182,33.85229634,8.397354081,307.3737349,25.17224572,81.43297914,-0.020441623,0.068063209,-0.053583957,0.021176906,1,1.818181818,ARR
162,58.32,0.069543651,0.072668651,0.033630952,0.017162698,0.128819444,0.016468254,0.095188492,0.084871032,0.201488095,0.267509921,NaN,NaN,369.3846154,369.4230769,20.21163995,36.93609788,20.98088915,37.70537278,21.67319396,38.39765239,57.81066795,74.57706447,62.34922884,0.769628583,1.461555451,37.66586304,42.20242866,0.693037156,36.89650889,41.43326252,36.20460888,40.74092758,79.11549041,NaN,NaN,NaN,NaN,NaN,27,55,63.09155553,292.9272727,68.78347808,75.1975106,374.7339569,0.540573287,2.92422119,-0.075741402,NaN,NaN,0.026047215,4,7.272727273,ARR
163,84.24,0.060416667,0.092509921,0.090724206,0.045684524,0.166964286,0.045039683,0.076240079,0.090079365,0.259474206,0.33531746,0.001383431,0.001394347,252.4210526,252.4210526,34.32091496,41.89834418,53.90065834,61.47972103,73.6359538,81.21401497,99.31585549,106.8948816,121.5263666,19.62759795,39.31638475,65.00375885,87.21182823,19.80138159,45.42621583,67.63763655,25.70050711,47.89971649,129.1052819,NaN,-5.019282024,8.646589879,-6.661102537,2.619210109,39,55,15.31018165,232.8,20.87738454,24.64864865,252.8849333,29.1906492,78.74536429,-0.017331788,0.070390554,-0.080816982,0.035635133,2,3.636363636,ARR
164,56.16,0.065674603,0.09578373,0.080803571,0.041021825,0.173313492,0.039781746,0.092509921,0.104166667,0.269097222,0.349454365,0.001400739,0.001377039,374.72,374.76,35.88521296,48.96250429,51.92597673,65.00630196,67.68366442,80.76213844,105.7200025,118.8000723,125.1200629,16.10106784,31.80013802,69.84280028,89.2413254,15.83048559,53.80557846,73.20567985,38.0467752,57.44291964,138.2000003,1.486689984,-5.94354625,10.35900038,-6.465693814,1.507401362,26,55,21.72835935,289.1090909,60.09771886,30.41746574,375.3494372,22.91552836,63.73169145,-0.016972382,0.086988205,-0.094319259,0.018814975,6,10.90909091,ARR
165,56.16,0.060763889,0.096875,0.083829365,0.044246032,0.16264881,0.039583333,0.078819444,0.085962302,0.25952381,0.334821429,NaN,NaN,383.64,383.52,36.53450466,47.2426747,54.81406565,65.52516804,70.21652875,80.92430513,97.80087106,108.5207638,115.2009755,18.29582178,33.68212737,61.28523122,78.68177334,15.44142606,43.00304532,60.40512269,27.62357943,45.0054915,125.9200029,3.070029977,NaN,NaN,NaN,3.696998931,26,55,17.26471546,293.1636364,62.67214359,27.60686308,384.0282802,19.90887534,67.41937521,-0.024731173,NaN,NaN,0.041738484,6,10.90909091,ARR
166,62.64,0.062164751,0.05,0,0,0.1,0,0.1,0.090804598,0.15,0.20440613,NaN,NaN,338.1785714,338.1785714,18.05807217,30.69187934,18.05807217,30.69187934,18.05807217,30.69187934,54.00270845,66.67857263,60.93114405,0,0,36.01140942,42.93831487,0,36.01140942,42.93831487,36.01140942,42.93831487,73.60714395,7.040491152,NaN,NaN,NaN,NaN,29,28,19.48085795,338.1785714,19.8383347,21.40830448,338.7392065,0,0,-0.080194327,NaN,NaN,0.025129002,4,14.28571429,ARR
167,49.68,0.065613027,0.089750958,0.071264368,0.036015326,0.17394636,0.035249042,0.102681992,0.099233716,0.263697318,0.32835249,0.001403757,0.001374021,433.5909091,433.5,36.00672822,47.41185303,52.32334841,63.73390297,68.36829914,79.77509606,105.5909265,117.0000684,119.3638056,16.38073097,32.3638392,69.59382359,83.36510394,16.11862661,53.27863855,67.0519852,37.23462854,51.00350608,130.7727285,2.031568377,-6.113604212,10.46446867,-6.595021669,1.730965492,23,28,7.958180987,410.7857143,21.80299861,10.92211138,433.6639357,23.96438599,64.86319678,-0.019319085,0.087609873,-0.095545212,0.019853911,1,3.571428571,ARR
168,66.96,0.058512545,0.050896057,0,0,0.1,0,0.1,0.083870968,0.150896057,0.196953405,NaN,NaN,326.7666667,326.7,18.29813781,29.70675711,18.29813781,29.70675711,18.29813781,29.70675711,54.26801733,65.70005704,59.33509287,0,0,36.00684624,41.07133049,0,36.00684624,41.07133049,36.00684624,41.07133049,70.76666958,5.27511796,NaN,NaN,NaN,1.545795947,31,30,85.22311241,326.7666667,86.68002329,154.2133812,337.697251,0,0,-0.056379436,NaN,NaN,0.018385255,7,23.33333333,ARR
169,58.32,0.066935484,0.050179211,0,0,0.100806452,0,0.100806452,0.09265233,0.150985663,0.211917563,NaN,NaN,361.3846154,361.3846154,18.05378799,33.2039195,18.05378799,33.2039195,18.05378799,33.2039195,54.34858066,69.53846208,62.04075689,0,0,36.35679635,44.04754981,0,36.35679635,44.04754981,36.35679635,44.04754981,77.23077003,6.354254128,NaN,NaN,NaN,NaN,27,30,7.766183713,352.8333333,10.93773741,7.975562676,361.4680537,0,0,-0.077115963,NaN,NaN,0.02412767,0,0,ARR
170,86.4,0.06375,0.083888889,0.092361111,0.046944444,0.159027778,0.045416667,0.066666667,0.064722222,0.242916667,0.309166667,0.00141288,0.001364898,249.8974359,249.8205128,30.1652871,40.82418722,47.05486991,57.72437755,63.36399362,74.02747612,87.23110362,97.89746277,99.71840497,16.95614992,33.20539295,57.08007094,69.56616297,16.36602045,40.18776347,52.67430972,23.87923563,36.36277804,110.3846184,3.083919725,-6.31830617,9.582128293,-6.263063166,1.888684326,40,39,5.917357656,249.8974359,5.99471202,7.48854157,249.9674851,23.05363472,66.52756333,-0.027374278,0.083103384,-0.084541212,0.024986243,0,0,ARR
171,51.84,0.071180556,0.103472222,0.091736111,0.04625,0.156597222,0.045486111,0.064861111,0.096597222,0.260069444,0.363888889,0.001410488,0.00136729,406.1304348,406.173913,41.6550683,57.13174742,57.91849337,73.39679542,73.74424804,89.22067308,96.26087726,111.739216,124.304399,16.3116623,32.08919898,54.61125047,82.653042,15.91324206,38.35553677,66.39750881,22.54087666,50.57090332,139.782609,1.065356315,-5.19307305,10.50761882,-8.397417627,2.73306467,24,39,35.47234605,342.3333333,56.78959834,26.87255659,407.6766088,23.65170092,64.31410333,-0.011778849,0.079023791,-0.104921409,0.042055532,5,12.82051282,ARR
172,47.52,0.050763889,0.063680556,0.064305556,0.031875,0.143680556,0.032430556,0.079375,0.080833333,0.207361111,0.264652778,NaN,NaN,441.4285714,441,15.69646895,21.15423018,22.2101902,27.676547,29.11606513,34.57975332,61.76228012,67.23814912,69.4769408,6.546695738,13.42880053,46.10214089,53.81379082,6.920878815,39.57868785,47.29090229,32.67399024,40.38531991,74.95239318,6.481363122,NaN,NaN,NaN,2.169637453,22,39,16.74336095,359.7692308,61.96780767,24.0841753,441.7459947,7.178988668,26.89637508,-0.060806884,NaN,NaN,0.020742608,4,10.25641026,ARR
173,71.28,0.061458333,0.078680556,0.064166667,0.032152778,0.158055556,0.032013889,0.093888889,0.115069444,0.236736111,0.331805556,NaN,NaN,306.78125,305.125,26.89431032,39.72497236,37.04984766,49.88121376,46.95601069,59.78710922,82.65712326,95.5001416,104.8441811,10.16209983,20.06253424,55.78495776,77.97126914,9.911474007,45.62884516,67.8153924,35.72280518,57.90884321,117.6875427,NaN,NaN,NaN,NaN,1.086838543,33,39,130.7284242,297.4358974,120.27077,182.8795115,333.4736215,6.241100393,40.13610807,-0.035328597,NaN,NaN,0.013823879,12,30.76923077,ARR
174,51.84,0.059583333,0.060416667,0.030416667,0.015277778,0.125069444,0.015138889,0.094652778,0.113680556,0.185486111,0.268125,NaN,NaN,412.3913043,412.3913043,18.05917953,29.88382404,18.05917953,29.88382404,18.05917953,29.88382404,54.00278796,65.86956667,69.13269708,0,0,36.01155421,51.13987108,0,36.01155421,51.13987108,36.01155421,51.13987108,81.00000312,7.225633822,NaN,NaN,NaN,NaN,24,39,12.95725122,351.0512821,48.77478856,14.48745539,412.5948112,0,0,-0.081043245,NaN,NaN,0.025303981,3,7.692307692,ARR
175,101.52,0.049231678,0.054787234,0.008865248,0.004728132,0.120035461,0.004137116,0.111170213,0.107387707,0.174822695,0.23965721,NaN,NaN,210.5,210.5,19.79487811,28.64554003,21.5330943,30.38423232,23.05496501,31.90594226,62.74024034,71.60912495,77.08849087,1.741707659,3.260931016,42.98640093,57.33074539,1.524334257,41.24712263,55.59181684,39.7259631,54.06998637,85.95685179,NaN,NaN,NaN,NaN,2.270251107,47,46,109.7540234,210.5,110.9668119,167.6682291,237.394599,1.630073465,6.526972932,-0.058497749,NaN,NaN,0.020670953,17,36.95652174,ARR
176,88.56,0.057328605,0.05,0,0,0.10679669,0,0.10679669,0.101241135,0.15679669,0.212470449,NaN,NaN,241.375,241.375,18.05819482,29.38855149,18.05819482,29.38855149,18.05819482,29.38855149,55.35245757,66.7250127,61.90275945,0,0,37.36153519,43.90853414,0,37.36153519,43.90853414,37.36153519,43.90853414,73.27500611,7.389799864,NaN,NaN,NaN,1.969086585,41,46,4.157448136,238.8913043,4.565875269,4.989930689,241.4108013,0,0,-0.080176332,NaN,NaN,0.024783701,0,0,ARR
177,77.76,0.04858156,0.067434988,0.036938534,0.019326241,0.144799054,0.017612293,0.10786052,0.114598109,0.212234043,0.284456265,NaN,NaN,278.6285714,278.6285714,26.43836486,33.75107117,35.78041946,43.09408258,44.29482974,51.60794272,81.91449863,89.22876556,99.85737532,9.351913949,17.85726061,55.48852969,73.43043823,8.526164329,46.14596187,64.08837021,37.63304238,55.57390011,107.1715743,NaN,NaN,NaN,NaN,NaN,36,46,142.5721042,267,126.1543147,218.0621896,312.9867181,8.47765577,35.73533889,-0.028104536,NaN,NaN,0.015490085,14,30.43478261,ARR
178,49.68,0.058392435,0.058687943,0.015130024,0.007919622,0.121867612,0.007210402,0.106737589,0.111170213,0.180555556,0.255969267,NaN,NaN,411.5909091,411.4545455,19.62935166,35.00772869,19.62935166,35.00772869,19.62935166,35.00772869,57.41058464,72.81829549,70.09282094,0,0,37.827348,50.5053274,0,37.827348,50.5053274,37.827348,50.5053274,85.50000751,5.385515707,NaN,NaN,NaN,2.316532793,23,46,212.6800113,340.5869565,156.7755413,340.0757819,463.292417,0,0,-0.061943766,NaN,NaN,0.021917638,10,21.73913043,ARR
179,95.04,0.050413712,0.051654846,0.00177305,0.000827423,0.11643026,0.000945626,0.11465721,0.087706856,0.168085106,0.21572104,NaN,NaN,225.0465116,225.0465116,18.6985908,27.03449678,19.02408737,27.36012312,19.39631027,27.73220667,60.2814471,68.65123775,68.04917123,0.32622945,0.697720369,41.63547534,49.40075864,0.373187475,41.3099419,49.07525131,40.93807283,48.70317572,76.4186661,NaN,NaN,NaN,NaN,NaN,44,46,11.71751519,226.8913043,11.59525493,15.62211425,225.3513536,0.36434082,1.397137295,-0.071484041,NaN,NaN,0.01974772,3,6.52173913,ARR
180,23.76,0.05035461,0.060224586,0.029196217,0.015602837,0.134751773,0.013593381,0.105555556,0.080910165,0.194976359,0.242966903,0.001495792,0.001281985,234.9,235.1,31.30889691,33.30840992,54.10539055,56.10541989,73.50511588,75.50489083,98.80003766,100.8000547,113.0001377,22.85022076,42.20019574,67.50505451,81.70199262,19.46834964,44.70526558,58.90750834,25.31775104,39.50604432,115.0001252,NaN,-5.165528645,8.596626907,-6.946350875,3.180910232,11,46,11.24677732,228.3695652,6.130734566,10.26801338,235.1690881,33.13100728,84.51876614,-0.023875187,0.066385491,-0.083952649,0.037499896,1,2.173913043,ARR
181,75.6,0.060165485,0.055732861,0.004846336,0.002423168,0.107978723,0.002423168,0.103132388,0.088297872,0.163711584,0.223108747,NaN,NaN,282.3235294,282.3235294,20.85050077,34.42255118,22.05618814,35.62830425,23.26207357,36.83412705,59.06057615,72.67681247,67.68014906,1.207768142,2.411790646,38.28006536,46.88987494,1.208035689,37.07428359,45.6841443,35.86851553,44.47818447,81.29413027,NaN,NaN,NaN,NaN,NaN,35,46,37.91765117,269.173913,34.88471908,58.61403537,284.8584272,1.426989717,4.827594477,-0.074080722,NaN,NaN,0.029205669,5,10.86956522,ARR
182,71.28,0.051595745,0.050236407,0,0,0.103427896,0,0.103427896,0.089007092,0.153664303,0.196690307,NaN,NaN,303.25,303.25,18.05588095,26.85862296,18.05588095,26.85862296,18.05588095,26.85862296,54.00261323,62.84375133,59.00258297,0,0,36.01095944,41.00917934,0,36.01095944,41.00917934,36.01095944,41.00917934,67.84375617,7.879977153,NaN,NaN,NaN,1.644107419,33,46,4.73682383,285.3043478,15.65140095,6.135141268,303.2869928,0,0,-0.078556416,NaN,NaN,0.024591911,0,0,ARR
183,25.92,0.057565012,0.058333333,0,0,0.103427896,0,0.103427896,0.087647754,0.161761229,0.212115839,NaN,NaN,756.8181818,752.2727273,25.57557916,39.82368149,25.57557916,39.82368149,25.57557916,39.82368149,61.54648751,75.81846048,71.09332505,0,0,36.00947258,45.54973824,0,36.00947258,45.54973824,36.00947258,45.54973824,85.36365242,4.887870069,NaN,NaN,NaN,2.767227504,12,46,930.4415196,394.3695652,493.6934414,1725.927603,1199.372829,0,0,-0.047684898,NaN,NaN,0.021371318,5,10.86956522,ARR
184,77.76,0.054373522,0.051300236,0.002304965,0.001122931,0.105614657,0.001182033,0.103309693,0.08463357,0.156914894,0.202541371,NaN,NaN,278.1142857,278.1142857,18.67256484,29.7106668,19.215394,30.25360961,19.78671965,30.82489316,55.68753328,66.74371228,59.85911974,0.544880582,1.114285948,37.06656618,41.23633522,0.573292583,36.52371548,40.69361186,35.95243367,40.12208928,70.91519599,NaN,NaN,NaN,NaN,1.86339642,36,46,50.60760611,267.2173913,45.65462703,77.24616316,282.681244,0.907976622,2.232459114,-0.069087323,NaN,NaN,0.023074297,3,6.52173913,ARR
185,73.44,0.050295508,0.051536643,0.004491726,0.00212766,0.108687943,0.002364066,0.104196217,0.148640662,0.160224586,0.26465721,NaN,NaN,295.969697,296.3939394,18.62397912,27.39397759,19.71392044,28.48391892,20.92599915,29.69599762,57.2747879,66.06164364,93.91012865,1.093785241,2.303149041,38.70779597,75.338783,1.213423497,37.61688384,74.24791368,36.40464738,73.03566255,102.6975557,NaN,NaN,NaN,NaN,1.599246242,34,46,88.22783346,279.7173913,76.82498222,112.4442527,308.8401077,1.290576426,4.610357779,-0.071760801,NaN,NaN,0.023727145,6,13.04347826,ARR
186,73.44,0.049231678,0.05,0,0,0.103546099,0,0.103546099,0.157269504,0.153546099,0.261465721,NaN,NaN,288.2424242,288.2424242,18.06462659,25.56160959,18.06462659,25.56160959,18.06462659,25.56160959,54.0650894,61.60611516,94.21334391,0,0,36.07019355,76.21953015,0,36.07019355,76.21953015,36.07019355,76.21953015,101.7576909,9.508693947,NaN,NaN,NaN,1.006651297,34,46,12.30429908,274.173913,16.00522127,9.212550882,288.5049235,0,0,-0.084551092,NaN,NaN,0.022941159,0,0,ARR
187,54,0.03392435,0.049408983,0.023167849,0.010992908,0.141016548,0.012174941,0.1178487,0.142730496,0.190425532,0.27287234,NaN,NaN,384.3333333,383.5833333,17.66484001,17.66484001,24.61062016,24.61062016,32.31878734,32.31878734,78.58415317,78.58415317,109.0420669,6.99014426,14.66744346,60.9647759,91.4210559,7.725598559,54.00523068,84.4633569,46.29767509,76.75363464,109.0420669,NaN,NaN,NaN,NaN,1.05147049,25,46,217.5533779,324.9565217,164.6897333,248.8907338,441.6351247,11.59317569,29.38318628,-0.067108956,NaN,NaN,0.016450281,6,13.04347826,ARR
188,92.41791045,0.05821513,0.061820331,0.014066194,0.007092199,0.117789598,0.006973995,0.103723404,0.100827423,0.179609929,0.241548463,NaN,NaN,233.952381,233.952381,22.80730775,34.79638047,25.66435276,37.65364656,28.47376733,40.46296365,65.07363342,77.09524468,74.90680539,2.86099806,5.666670411,42.31816932,52.15026458,2.813426464,39.4611615,49.29338401,36.65170029,46.48367159,86.92857771,NaN,NaN,NaN,NaN,NaN,43,46,79.67940296,234.673913,76.98077254,121.8942989,247.1487888,2.511576488,11.34109494,-0.065742548,NaN,NaN,0.021397118,13,28.26086957,ARR
189,92.41791045,0.061643026,0.107092199,0.080555556,0.040130024,0.185815603,0.040425532,0.105260047,0.102009456,0.292907801,0.368676123,0.001383553,0.001394225,231.6904762,231.7142857,40.4578411,51.74019452,56.26499558,67.55219553,72.16993015,83.45380628,109.4285881,120.7143723,125.4049481,15.85917022,31.71430401,68.97888492,84.95357486,15.95577433,53.17056614,69.14752307,37.26726184,53.24018896,136.6904773,1.945675363,-5.420959273,9.026048234,-5.505141615,1.554332471,43,46,4.595484819,232.6086957,4.52741654,6.473301228,231.7360465,19.81782691,63.52924856,-0.016309146,0.07847804,-0.079404606,0.016856217,0,0,ARR
190,73.07462687,0.062470449,0.102541371,0.080732861,0.040130024,0.187529551,0.040602837,0.10679669,0.116312057,0.290070922,0.394799054,0.001383778,0.001394,290.9393939,291,38.09431719,49.57739843,53.97256159,65.45787943,69.94104094,81.42510332,107.9090995,119.3939586,137.9697469,15.91435492,31.84851602,69.81976042,99.87956254,16.00306108,53.94267196,84.00270921,37.97225755,68.03128329,149.454546,1.271075374,-4.509906897,7.393511341,-4.287019821,0.802289285,34,46,7.950374087,275.4782609,14.88803977,8.097971872,291.0480019,16.42103583,63.76593203,-0.013123307,0.065695948,-0.063544708,0.011372329,0,0,ARR
191,45.13432836,0.061288416,0.085874704,0.05679669,0.028368794,0.1678487,0.028427896,0.111052009,0.103132388,0.253723404,0.338002364,NaN,NaN,479.7,477,23.38639361,34.90893776,29.38229589,40.9089714,35.08437086,46.60866879,76.6010246,88.15017787,90.15151903,6.013015025,11.70010621,53.2575733,66.80406229,5.716971947,47.25668085,60.80511071,41.5604437,55.10495368,101.700018,5.682541797,NaN,NaN,NaN,2.627569969,21,46,257.6160127,357.5869565,190.0615168,373.7388692,544.4980257,6.975749852,23.43009319,-0.057533241,NaN,NaN,0.023174492,8,17.39130435,ARR
192,70.92537313,0.047813239,0.105141844,0.080141844,0.040130024,0.183096927,0.04001182,0.102955083,0.101241135,0.288238771,0.3571513,0.001398393,0.001379385,302.125,302.28125,39.5042024,52.72145075,55.38093623,68.59933128,71.03406725,84.25201494,107.0312539,120.2500252,117.3437796,15.93518484,31.53130947,67.53382978,77.84530767,15.72256834,51.66234615,61.9751553,36.00581644,46.31575342,130.5625051,NaN,-5.812668711,10.23349726,-6.28338772,1.561280275,33,46,9.436465175,283.2826087,17.77053912,10.27347189,302.2723317,22.23734391,63.18906265,-0.01459789,0.087073757,-0.092017971,0.017912901,1,2.173913043,ARR
193,107.4626866,0.054388889,0.108277778,0.023222222,0.012055556,0.122611111,0.011166667,0.099388889,0.089555556,0.230888889,0.283777778,NaN,NaN,196.4489796,196.3877551,38.92532575,47.3498895,42.96605087,51.39097176,46.72121932,55.14588458,82.83707594,91.26537631,92.85768256,4.046423732,7.796121167,43.9220264,53.9406807,3.763920169,39.88161134,49.90044139,36.12793359,46.14555783,101.2857562,NaN,NaN,NaN,NaN,NaN,50,49,98.1169775,196.4489796,99.1337609,148.6827214,219.5885763,3.834099326,15.60646507,-0.018484748,NaN,NaN,0.017272864,21,42.85714286,ARR
194,82.08,0.059222222,0.063555556,0.007722222,0.003944444,0.1095,0.003777778,0.101777778,0.106444444,0.173055556,0.243388889,NaN,NaN,259.6756757,259.6756757,18.04477135,30.78956821,18.96242764,31.7072245,19.88106824,32.6258651,56.27103786,69.02705805,71.00063545,0.924340157,1.838016873,38.24668041,52.97572003,0.921924222,37.32778171,52.05694588,36.4086661,51.1377392,83.75678215,NaN,NaN,NaN,NaN,NaN,38,49,30.45959136,237.4693878,33.09503971,51.50286909,261.4560063,1.481830179,3.684281252,-0.043795982,NaN,NaN,0.013256922,2,4.081632653,ARR
195,77.14285714,0.053722222,0.0895,0.0495,0.025388889,0.143444444,0.024111111,0.093944444,0.090111111,0.232944444,0.288166667,NaN,NaN,282.4,282.4285714,31.2736799,39.60428057,42.6663805,51.00577854,53.64232858,61.97573104,86.48667634,94.82886217,98.31546811,11.43342671,22.37194076,55.23310313,67.05918201,11.01719551,43.83382464,55.66259834,32.86854122,44.69045137,106.6571656,4.673790262,NaN,NaN,NaN,2.737039922,36,49,96.91917104,253.7346939,86.30443839,84.28605622,298.5683937,13.87378331,44.82256298,-0.032545802,NaN,NaN,0.026248324,11,22.44897959,ARR
196,69.12,0.064888889,0.073888889,0.008,0.004166667,0.108666667,0.003833333,0.100666667,0.085277778,0.182555556,0.235555556,NaN,NaN,307.1935484,307.2258065,21.95216514,35.49587231,21.95216514,35.49587231,21.95216514,35.49587231,57.90489641,71.48397383,63.35754266,0,0,36.01466353,41.46094523,0,36.01466353,41.46094523,36.01466353,41.46094523,76.93549856,6.107144412,NaN,NaN,NaN,3.204551705,32,49,8.55501873,256.9183673,40.98379949,8.360555537,307.3126495,0,0,-0.066804345,NaN,NaN,0.028455635,1,2.040816327,ARR
197,56.16,0.063722222,0.070055556,0.008,0.004166667,0.108666667,0.003833333,0.100666667,0.083555556,0.178722222,0.234277778,NaN,NaN,384.16,384.24,19.34479425,33.57195158,19.34479425,33.57195158,19.34479425,33.57195158,55.28232608,69.56024001,61.76416334,0,0,36.01601562,42.4887778,0,36.01601562,42.4887778,36.01601562,42.4887778,76.04000731,7.419159667,NaN,NaN,NaN,3.552944145,26,49,20.30109357,296.2040816,65.14558206,16.8151201,384.6960359,0,0,-0.081845641,NaN,NaN,0.029733758,2,4.081632653,ARR
198,82.08,0.061,0.064055556,0.003944444,0.002055556,0.104888889,0.001888889,0.100944444,0.093333333,0.168944444,0.228944444,NaN,NaN,259.2162162,259.2162162,18.34552851,31.36555997,18.34552851,31.36555997,18.34552851,31.36555997,54.27290652,67.351597,63.38281234,0,0,36.01756598,45.117292,0,36.01756598,45.117292,36.01756598,45.117292,76.45946838,8.321479067,NaN,NaN,NaN,3.14556339,38,49,42.90412639,237.122449,42.36971419,62.72211766,262.7428606,0,0,-0.090822084,NaN,NaN,0.031217925,2,4.081632653,ARR
199,56.16,0.053888889,0.063611111,0.003944444,0.002055556,0.108555556,0.001888889,0.104611111,0.102944444,0.172166667,0.225722222,NaN,NaN,374.72,374.72,18.05924934,24.93604234,18.05924934,24.93604234,18.05924934,24.93604234,56.56301129,63.4800056,67.60276894,0,0,38.57002847,49.60792149,0,38.57002847,49.60792149,38.57002847,49.60792149,74.52001282,9.281966808,NaN,NaN,NaN,1.533456947,26,49,21.66567793,300.3265306,55.91935175,30.33261789,375.3458139,0,0,-0.08088808,NaN,NaN,0.022725356,6,12.24489796,ARR
200,56.16,0.076666667,0.092,0.054111111,0.027166667,0.155944444,0.026944444,0.101833333,0.101055556,0.247944444,0.328611111,0.001390415,0.001387363,383.64,383.64,37.68509806,55.20259923,55.04614114,72.56589556,72.4033566,89.92203303,109.0000018,126.5200605,127.8400569,17.4198046,34.72008801,71.32286045,90.16138121,17.42636084,53.9659784,72.80610337,36.60701445,55.44299824,145.3600072,NaN,-5.688637634,9.746158224,-6.119901813,1.548447917,26,49,12.66769119,304.877551,57.57238998,17.49479089,383.8490849,25.69142629,69.56625345,-0.016438527,0.08303962,-0.087477262,0.01956082,4,8.163265306,ARR
201,62.64,0.0715,0.102444444,0.055388889,0.028166667,0.159722222,0.027222222,0.104333333,0.110388889,0.262166667,0.341055556,0.001409941,0.001367836,338.2142857,338.1071429,42.07576878,57.53765018,58.29086375,73.75556619,74.0034593,89.46618978,112.1071497,127.5714644,130.5715021,16.27274102,31.9287723,70.03801261,88.50122407,15.78483845,53.82753584,72.2914714,38.11320048,56.57437799,146.0357144,1.311775841,-5.670466538,10.25858611,-6.429196122,1.337654116,29,49,19.62388694,286.5714286,42.1945607,21.76347477,338.7831165,22.86164414,63.98635178,-0.014341419,0.084833175,-0.094704262,0.017794335,4,8.163265306,ARR
202,49.68,0.060777778,0.085944444,0.037555556,0.019166667,0.128833333,0.018388889,0.091277778,0.1045,0.214777778,0.290166667,NaN,NaN,434.2727273,435.8636364,29.62703379,39.46267251,39.21846657,49.05627553,48.44761742,58.28278411,75.81999114,85.68193873,97.63855276,9.616654692,18.82062245,46.23459007,68.04926442,9.282046458,36.64592929,58.46147229,27.43019128,49.23479711,107.5000112,5.68004677,NaN,NaN,NaN,2.846954001,23,49,19.34890605,328.3673469,72.88507713,35.32498939,434.7035563,13.64207623,37.7193236,-0.04733209,NaN,NaN,0.041011689,9,18.36734694,ARR
203,66.96,0.062944444,0.093166667,0.065055556,0.033,0.166166667,0.032055556,0.101111111,0.0935,0.259333333,0.333333333,0.001401745,0.001376032,327,326.9333333,35.47523925,46.60421982,53.23717735,64.37198703,70.63709871,81.76857253,107.0333858,118.1667381,125.7002053,17.82107695,35.16668819,71.56995584,90.23489364,17.45304826,53.80473734,72.47179511,36.40623078,55.06898982,136.8333508,NaN,-5.76317737,8.969765942,-5.494167805,1.486712494,31,49,80.92177293,277.877551,74.83877808,146.3509375,336.8639686,24.39109951,70.4408134,-0.021981511,0.078774215,-0.0781018,0.017951454,7,14.28571429,ARR
204,58.32,0.077055556,0.092277778,0.067277778,0.033888889,0.166333333,0.033388889,0.099055556,0.093666667,0.258611111,0.334444444,0.00139445,0.001383328,361.3076923,361.3076923,34.46974643,49.54197901,53.00564686,68.08334682,71.3882751,86.463359,106.3461606,121.4231414,122.3847381,18.60119344,36.92309157,71.88817244,87.92498191,18.44542025,53.35230668,69.39107025,34.96826873,51.00296159,137.461539,1.865320308,-5.95393688,9.35666415,-5.776105508,1.612590916,27,49,7.538461538,293.7755102,50.01104557,7.349122397,361.3863264,27.86917424,73.96970525,-0.021810401,0.082295617,-0.081375525,0.019618872,0,0,ARR
205,86.4,0.077,0.104166667,0.082388889,0.041111111,0.183111111,0.041277778,0.100722222,0.0985,0.287277778,0.374666667,0.001382937,0.001394841,249.8461538,249.8461538,37.05996907,50.4138411,54.64598396,68.00646076,72.36249098,85.71947897,108.538499,121.897487,129.1283781,17.6569311,35.30780662,71.49073048,92.07882129,17.77719245,53.90376538,74.49320743,36.18486199,56.77145401,142.4871799,2.105097907,-6.240780818,9.67942008,-5.66609226,1.326180572,40,49,5.699925602,233.0408163,15.9957236,7.174516305,249.9111637,26.37056041,70.74193018,-0.021651358,0.087497196,-0.081846386,0.017230131,0,0,ARR
206,51.84,0.079166667,0.118166667,0.078055556,0.039277778,0.181,0.038777778,0.102944444,0.106277778,0.299166667,0.381833333,0.001399743,0.001378035,406.1304348,406.0434783,47.56815836,62.87109321,63.70073638,79.00506503,79.56862672,94.87177085,117.4782642,132.7826588,132.6956904,16.18540746,32.00068813,69.91523484,85.13151283,15.9442962,53.78825796,69.00593234,37.92070524,53.13425877,148.0000004,0.980042728,-5.356631215,10.26173329,-6.69225784,1.623325389,24,49,35.53235433,306.6530612,73.12101973,26.85990591,407.6818346,22.98050684,64.1303918,-0.0111257,0.082553636,-0.097041669,0.020069247,5,10.20408163,ARR
207,47.52,0.078055556,0.104,0.081444444,0.041,0.182944444,0.040444444,0.1015,0.108388889,0.286944444,0.380055556,0.001401515,0.001376263,440.8095238,440.9047619,35.90946185,53.526034,53.43427717,71.05325636,70.67044683,88.28796319,107.3809544,125.0000418,128.8572145,17.57658491,34.76223167,71.47839578,92.95344642,17.30420639,53.95830458,75.43414283,36.72119131,58.19352785,146.4762014,NaN,-5.359012365,9.435014302,-6.110103899,1.421952698,22,49,15.70750214,320.244898,80.4199456,20.62498485,441.0892902,24.93498006,69.64302297,-0.016150573,0.077539993,-0.087513611,0.019355082,4,8.163265306,ARR
208,84.24,0.063222222,0.093222222,0.055111111,0.027888889,0.150777778,0.027222222,0.095666667,0.099555556,0.244,0.313833333,NaN,NaN,257.7894737,256.7368421,31.78872388,42.32128993,43.13124216,53.66425447,54.20951625,64.74223094,88.42207628,98.97374404,103.1857347,11.35840542,22.42116464,56.66371517,71.42429012,11.09915994,45.32279622,60.08361391,34.24450747,49.00392881,113.7368505,NaN,NaN,NaN,NaN,1.735500984,39,49,63.81765054,239.3265306,59.11073047,119.1992519,265.5712809,10.83346798,44.87873,-0.037016591,NaN,NaN,0.019981156,15,30.6122449,ARR
209,51.84,0.075388889,0.095388889,0.069611111,0.035166667,0.167333333,0.034444444,0.097722222,0.093888889,0.262722222,0.339166667,0.001395503,0.001382275,412.3913043,412.3478261,33.96351448,50.91588252,51.57090749,68.52788721,69.04686612,86.00164858,104.1304389,121.0870208,118.0870672,17.66881026,35.08695918,70.17703315,84.13209127,17.53833412,52.57121211,66.52820431,35.09310185,49.04626406,135.0434787,1.681265971,-5.884423721,9.462293496,-5.810091583,1.618630533,24,49,12.87309,316.6530612,66.86820616,14.39926536,412.5921768,25.44882533,70.29410357,-0.02027419,0.082620741,-0.082907878,0.018690426,3,6.12244898,ARR
210,99.36,0.073611111,0.102222222,0.091166667,0.046388889,0.1885,0.044777778,0.097333333,0.107,0.290722222,0.387666667,NaN,NaN,215.2,215.1555556,36.51747431,48.35768792,53.85052751,65.69202932,70.58306493,82.42386469,105.7780033,117.6222485,129.1114123,17.35695884,34.06670072,69.26852076,92.60102891,16.75956866,51.93660074,75.26958045,35.20353275,58.53492808,140.9555709,NaN,NaN,NaN,NaN,NaN,46,49,93.02726004,213.9795918,90.08100785,118.6019347,234.4463928,16.6692275,68.18322823,-0.016108011,NaN,NaN,0.013670889,16,32.65306122,ARR
211,88.56,0.077777778,0.099111111,0.089944444,0.044833333,0.191611111,0.045111111,0.101666667,0.0905,0.290722222,0.378277778,0.001378624,0.001399154,241.45,241.45,35.05708747,47.57805249,51.57957467,64.10566959,68.37776714,80.90124783,105.5000165,118.0250499,124.0751264,16.58361035,33.32512243,70.45297479,89.02656696,16.85040277,53.93013982,72.50514532,37.12918822,55.70172675,136.6000005,1.910988927,-5.961787878,9.235206523,-5.282886364,1.228294402,41,49,4.0059331,236.877551,5.549383575,4.700217517,241.4832292,22.39825173,66.75913556,-0.020089055,0.084167951,-0.077374364,0.014986634,0,0,ARR
